# IR Spectrum
# X-Axis:  Frequency (cm-1)
# Y-Axis:  &epsilon; (M-1 cm-1)

# Peak information
#                  X                   Y
#      37.7695000000        0.0000000000
#     135.1028000000        2.9321906088
#     375.5136000000       12.9759614005
#     486.7250000000        3.0113608365
#     531.5366000000      110.2176213149
#     786.2180000000        4.6753327452
#     894.6143000000       29.4633648628
#     897.6753000000        0.0022220715
#    1095.2477000000        0.0047351997
#    1131.2119000000       14.8853177086
#    1245.5378000000      253.4694251560
#    1410.9139000000       41.6302481212
#    1412.8401000000      149.2745633963
#    1490.4532000000        0.6121461475
#    1494.7952000000        0.0018682012
#    1498.7760000000       62.4589716987
#    1516.2528000000       50.4687767256
#    1823.3495000000      331.8332369100
#    3044.8493000000        1.9708205468
#    3051.8519000000        9.7912301617
#    3101.0585000000        0.0001286463
#    3108.4083000000       30.2593521370
#    3166.6626000000       14.8865604832
#    3167.4357000000       11.6045644885

# Spectra
#                  X                   Y               DY/DX
        0.0000000000        0.0003005623        0.0000044455
        0.8750000000        0.0003044902        0.0000045329
        1.7500000000        0.0003084955        0.0000046226
        2.6250000000        0.0003125804        0.0000047147
        3.5000000000        0.0003167469        0.0000048092
        4.3750000000        0.0003209973        0.0000049063
        5.2500000000        0.0003253338        0.0000050061
        6.1250000000        0.0003297587        0.0000051085
        7.0000000000        0.0003342745        0.0000052138
        7.8750000000        0.0003388837        0.0000053219
        8.7500000000        0.0003435888        0.0000054331
        9.6250000000        0.0003483925        0.0000055474
       10.5000000000        0.0003532977        0.0000056649
       11.3750000000        0.0003583071        0.0000057858
       12.2500000000        0.0003634239        0.0000059101
       13.1250000000        0.0003686509        0.0000060381
       14.0000000000        0.0003739916        0.0000061697
       14.8750000000        0.0003794490        0.0000063052
       15.7500000000        0.0003850268        0.0000064447
       16.6250000000        0.0003907284        0.0000065883
       17.5000000000        0.0003965576        0.0000067362
       18.3750000000        0.0004025181        0.0000068886
       19.2500000000        0.0004086140        0.0000070456
       20.1250000000        0.0004148494        0.0000072074
       21.0000000000        0.0004212285        0.0000073743
       21.8750000000        0.0004277558        0.0000075463
       22.7500000000        0.0004344360        0.0000077236
       23.6250000000        0.0004412738        0.0000079066
       24.5000000000        0.0004482743        0.0000080954
       25.3750000000        0.0004554426        0.0000082903
       26.2500000000        0.0004627841        0.0000084915
       27.1250000000        0.0004703046        0.0000086992
       28.0000000000        0.0004780097        0.0000089138
       28.8750000000        0.0004859057        0.0000091354
       29.7500000000        0.0004939989        0.0000093645
       30.6250000000        0.0005022958        0.0000096013
       31.5000000000        0.0005108035        0.0000098461
       32.3750000000        0.0005195290        0.0000100994
       33.2500000000        0.0005284799        0.0000103613
       34.1250000000        0.0005376640        0.0000106325
       35.0000000000        0.0005470895        0.0000109131
       35.8750000000        0.0005567649        0.0000112037
       36.7500000000        0.0005666991        0.0000115048
       37.6250000000        0.0005769014        0.0000118167
       38.5000000000        0.0005873816        0.0000121399
       39.3750000000        0.0005981498        0.0000124751
       40.2500000000        0.0006092167        0.0000128227
       41.1250000000        0.0006205933        0.0000131833
       42.0000000000        0.0006322915        0.0000135576
       42.8750000000        0.0006443234        0.0000139462
       43.7500000000        0.0006567017        0.0000143498
       44.6250000000        0.0006694400        0.0000147690
       45.5000000000        0.0006825523        0.0000152048
       46.3750000000        0.0006960534        0.0000156578
       47.2500000000        0.0007099588        0.0000161290
       48.1250000000        0.0007242848        0.0000166193
       49.0000000000        0.0007390484        0.0000171297
       49.8750000000        0.0007542678        0.0000176611
       50.7500000000        0.0007699619        0.0000182148
       51.6250000000        0.0007861506        0.0000187918
       52.5000000000        0.0008028548        0.0000193934
       53.3750000000        0.0008200967        0.0000200210
       54.2500000000        0.0008378995        0.0000206759
       55.1250000000        0.0008562880        0.0000213597
       56.0000000000        0.0008752879        0.0000220739
       56.8750000000        0.0008949267        0.0000228204
       57.7500000000        0.0009152334        0.0000236008
       58.6250000000        0.0009362386        0.0000244171
       59.5000000000        0.0009579745        0.0000252716
       60.3750000000        0.0009804756        0.0000261663
       61.2500000000        0.0010037780        0.0000271037
       62.1250000000        0.0010279202        0.0000280864
       63.0000000000        0.0010529431        0.0000291171
       63.8750000000        0.0010788900        0.0000301988
       64.7500000000        0.0011058069        0.0000313348
       65.6250000000        0.0011337427        0.0000325283
       66.5000000000        0.0011627493        0.0000337832
       67.3750000000        0.0011928822        0.0000351033
       68.2500000000        0.0012242004        0.0000364931
       69.1250000000        0.0012567668        0.0000379571
       70.0000000000        0.0012906486        0.0000395004
       70.8750000000        0.0013259173        0.0000411284
       71.7500000000        0.0013626497        0.0000428470
       72.6250000000        0.0014009279        0.0000446626
       73.5000000000        0.0014408395        0.0000465820
       74.3750000000        0.0014824788        0.0000486128
       75.2500000000        0.0015259468        0.0000507633
       76.1250000000        0.0015713520        0.0000530422
       77.0000000000        0.0016188110        0.0000554595
       77.8750000000        0.0016684495        0.0000580256
       78.7500000000        0.0017204026        0.0000607522
       79.6250000000        0.0017748163        0.0000636520
       80.5000000000        0.0018318482        0.0000667391
       81.3750000000        0.0018916688        0.0000700286
       82.2500000000        0.0019544623        0.0000735375
       83.1250000000        0.0020204287        0.0000772843
       84.0000000000        0.0020897851        0.0000812895
       84.8750000000        0.0021627672        0.0000855756
       85.7500000000        0.0022396317        0.0000901678
       86.6250000000        0.0023206581        0.0000950936
       87.5000000000        0.0024061518        0.0001003841
       88.3750000000        0.0024964465        0.0001060733
       89.2500000000        0.0025919076        0.0001121996
       90.1250000000        0.0026929356        0.0001188055
       91.0000000000        0.0027999709        0.0001259388
       91.8750000000        0.0029134978        0.0001336530
       92.7500000000        0.0030340506        0.0001420084
       93.6250000000        0.0031622192        0.0001510727
       94.5000000000        0.0032986568        0.0001609224
       95.3750000000        0.0034440877        0.0001716442
       96.2500000000        0.0035993171        0.0001833364
       97.1250000000        0.0037652420        0.0001961110
       98.0000000000        0.0039428640        0.0002100954
       98.8750000000        0.0041333042        0.0002254358
       99.7500000000        0.0043378209        0.0002422999
      100.6250000000        0.0045578295        0.0002608807
      101.5000000000        0.0047949275        0.0002814011
      102.3750000000        0.0050509222        0.0003041196
      103.2500000000        0.0053278651        0.0003293369
      104.1250000000        0.0056280923        0.0003574039
      105.0000000000        0.0059542724        0.0003887322
      105.8750000000        0.0063094654        0.0004238064
      106.7500000000        0.0066971922        0.0004631991
      107.6250000000        0.0071215206        0.0005075907
      108.5000000000        0.0075871692        0.0005577931
      109.3750000000        0.0080996355        0.0006147802
      110.2500000000        0.0086653536        0.0006797265
      111.1250000000        0.0092918907        0.0007540563
      112.0000000000        0.0099881921        0.0008395077
      112.8750000000        0.0107648903        0.0009382141
      113.7500000000        0.0116346959        0.0010528128
      114.6250000000        0.0126128973        0.0011865862
      115.5000000000        0.0137180044        0.0013436503
      116.3750000000        0.0149725821        0.0015292076
      117.2500000000        0.0164043437        0.0017498883
      118.1250000000        0.0180475929        0.0020142170
      119.0000000000        0.0199451474        0.0023332548
      119.8750000000        0.0221509274        0.0027214933
      120.7500000000        0.0247334752        0.0031981084
      121.6250000000        0.0277807845        0.0037887355
      122.5000000000        0.0314069930        0.0045279959
      123.3750000000        0.0357617311        0.0054631093
      124.2500000000        0.0410432673        0.0066590446
      125.1250000000        0.0475170394        0.0082057789
      126.0000000000        0.0555416616        0.0102281952
      126.8750000000        0.0656047716        0.0128985488
      127.7500000000        0.0783701823        0.0164490468
      128.6250000000        0.0947329728        0.0211746450
      129.5000000000        0.1158629234        0.0273955708
      130.3750000000        0.1431708680        0.0352983725
      131.2500000000        0.1780213443        0.0444740712
      132.1250000000        0.2208082100        0.0528825306
      133.0000000000        0.2688749800        0.0553713383
      133.8750000000        0.3136315673        0.0439899467
      134.7500000000        0.3405323186        0.0149015525
      135.6250000000        0.3374304716       -0.0216566728
      136.5000000000        0.3058629169       -0.0476100348
      137.3750000000        0.2594589719       -0.0557147532
      138.2500000000        0.2119641163       -0.0515033291
      139.1250000000        0.1706410149       -0.0426596003
      140.0000000000        0.1373324105       -0.0336418753
      140.8750000000        0.1113360196       -0.0260614768
      141.7500000000        0.0912333303       -0.0201526458
      142.6250000000        0.0756494653       -0.0156798849
      143.5000000000        0.0634691256       -0.0123209954
      144.3750000000        0.0538462643       -0.0097921987
      145.2500000000        0.0461553532       -0.0078736598
      146.1250000000        0.0399370619       -0.0064033432
      147.0000000000        0.0348532756       -0.0052640285
      147.8750000000        0.0306533257       -0.0043712654
      148.7500000000        0.0271496127       -0.0036640138
      149.6250000000        0.0242002668       -0.0030978401
      150.5000000000        0.0216968454       -0.0026401051
      151.3750000000        0.0195555758       -0.0022665941
      152.2500000000        0.0177110763       -0.0019591577
      153.1250000000        0.0161118174       -0.0017040532
      154.0000000000        0.0147168080       -0.0014907712
      154.8750000000        0.0134931535       -0.0013111977
      155.7500000000        0.0124142373       -0.0011590109
      156.6250000000        0.0114583557       -0.0010292421
      157.5000000000        0.0106076811       -0.0009179540
      158.3750000000        0.0098474691       -0.0008220022
      159.2500000000        0.0091654467       -0.0007388569
      160.1250000000        0.0085513358       -0.0006664686
      161.0000000000        0.0079964796       -0.0006031659
      161.8750000000        0.0074935479       -0.0005475771
      162.7500000000        0.0070363018       -0.0004985702
      163.6250000000        0.0066194059       -0.0004552053
      164.5000000000        0.0062382769       -0.0004166981
      165.3750000000        0.0058889603       -0.0003823909
      166.2500000000        0.0055680304       -0.0003517292
      167.1250000000        0.0052725083       -0.0003242440
      168.0000000000        0.0049997938       -0.0002995363
      168.8750000000        0.0047476096       -0.0002772654
      169.7500000000        0.0045139542       -0.0002571395
      170.6250000000        0.0042970635       -0.0002389074
      171.5000000000        0.0040953773       -0.0002223525
      172.3750000000        0.0039075124       -0.0002072870
      173.2500000000        0.0037322385       -0.0001935476
      174.1250000000        0.0035684590       -0.0001809920
      175.0000000000        0.0034151936       -0.0001694960
      175.8750000000        0.0032715640       -0.0001589503
      176.7500000000        0.0031367815       -0.0001492590
      177.6250000000        0.0030101363       -0.0001403377
      178.5000000000        0.0028909879       -0.0001321115
      179.3750000000        0.0027787578       -0.0001245142
      180.2500000000        0.0026729219       -0.0001174870
      181.1250000000        0.0025730047       -0.0001109775
      182.0000000000        0.0024785740       -0.0001049390
      182.8750000000        0.0023892363       -0.0000993298
      183.7500000000        0.0023046325       -0.0000941125
      184.6250000000        0.0022244349       -0.0000892536
      185.5000000000        0.0021483431       -0.0000847227
      186.3750000000        0.0020760823       -0.0000804929
      187.2500000000        0.0020074000       -0.0000765394
      188.1250000000        0.0019420642       -0.0000728402
      189.0000000000        0.0018798614       -0.0000693752
      189.8750000000        0.0018205947       -0.0000661261
      190.7500000000        0.0017640825       -0.0000630765
      191.6250000000        0.0017101571       -0.0000602112
      192.5000000000        0.0016586631       -0.0000575166
      193.3750000000        0.0016094569       -0.0000549802
      194.2500000000        0.0015624050       -0.0000525905
      195.1250000000        0.0015173837       -0.0000503372
      196.0000000000        0.0014742779       -0.0000482106
      196.8750000000        0.0014329808       -0.0000462019
      197.7500000000        0.0013933925       -0.0000443032
      198.6250000000        0.0013554203       -0.0000425069
      199.5000000000        0.0013189775       -0.0000408064
      200.3750000000        0.0012839831       -0.0000391952
      201.2500000000        0.0012503615       -0.0000376677
      202.1250000000        0.0012180418       -0.0000362184
      203.0000000000        0.0011869579       -0.0000348425
      203.8750000000        0.0011570475       -0.0000335352
      204.7500000000        0.0011282524       -0.0000322926
      205.6250000000        0.0011005178       -0.0000311104
      206.5000000000        0.0010737925       -0.0000299853
      207.3750000000        0.0010480280       -0.0000289137
      208.2500000000        0.0010231788       -0.0000278925
      209.1250000000        0.0009992023       -0.0000269188
      210.0000000000        0.0009760580       -0.0000259898
      210.8750000000        0.0009537078       -0.0000251031
      211.7500000000        0.0009321160       -0.0000242562
      212.6250000000        0.0009112485       -0.0000234469
      213.5000000000        0.0008910735       -0.0000226733
      214.3750000000        0.0008715605       -0.0000219332
      215.2500000000        0.0008526810       -0.0000212250
      216.1250000000        0.0034912421        0.0000127699
      217.0000000000        0.0035029436        0.0000139737
      217.8750000000        0.0035156918        0.0000151628
      218.7500000000        0.0035294748        0.0000163390
      219.6250000000        0.0035442817        0.0000175038
      220.5000000000        0.0035601036        0.0000186590
      221.3750000000        0.0035769326        0.0000198060
      222.2500000000        0.0035947621        0.0000209463
      223.1250000000        0.0036135870        0.0000220814
      224.0000000000        0.0036334034        0.0000232126
      224.8750000000        0.0036542083        0.0000243413
      225.7500000000        0.0036760003        0.0000254688
      226.6250000000        0.0036987788        0.0000265964
      227.5000000000        0.0037225445        0.0000277254
      228.3750000000        0.0037472990        0.0000288569
      229.2500000000        0.0037730452        0.0000299922
      230.1250000000        0.0037997868        0.0000311324
      231.0000000000        0.0038275287        0.0000322787
      231.8750000000        0.0038562767        0.0000334324
      232.7500000000        0.0038860378        0.0000345944
      233.6250000000        0.0039168197        0.0000357661
      234.5000000000        0.0039486315        0.0000369484
      235.3750000000        0.0039814829        0.0000381426
      236.2500000000        0.0040153848        0.0000393498
      237.1250000000        0.0040503492        0.0000405711
      238.0000000000        0.0040863888        0.0000418077
      238.8750000000        0.0041235175        0.0000430608
      239.7500000000        0.0041617504        0.0000443315
      240.6250000000        0.0042011032        0.0000456210
      241.5000000000        0.0042415930        0.0000469305
      242.3750000000        0.0042832378        0.0000482613
      243.2500000000        0.0043260568        0.0000496145
      244.1250000000        0.0043700702        0.0000509915
      245.0000000000        0.0044152993        0.0000523936
      245.8750000000        0.0044617666        0.0000538220
      246.7500000000        0.0045094958        0.0000552781
      247.6250000000        0.0045585117        0.0000567633
      248.5000000000        0.0046088405        0.0000582791
      249.3750000000        0.0046605095        0.0000598269
      250.2500000000        0.0047135473        0.0000614082
      251.1250000000        0.0047679841        0.0000630246
      252.0000000000        0.0048238511        0.0000646777
      252.8750000000        0.0048811813        0.0000663692
      253.7500000000        0.0049400089        0.0000681007
      254.6250000000        0.0050003698        0.0000698741
      255.5000000000        0.0050623013        0.0000716912
      256.3750000000        0.0051258426        0.0000735539
      257.2500000000        0.0051910345        0.0000754642
      258.1250000000        0.0052579194        0.0000774241
      259.0000000000        0.0053265418        0.0000794359
      259.8750000000        0.0053969479        0.0000815016
      260.7500000000        0.0054691861        0.0000836237
      261.6250000000        0.0055433066        0.0000858046
      262.5000000000        0.0056193620        0.0000880468
      263.3750000000        0.0056974071        0.0000903528
      264.2500000000        0.0057774989        0.0000927256
      265.1250000000        0.0058596971        0.0000951678
      266.0000000000        0.0059440638        0.0000976826
      266.8750000000        0.0060306638        0.0001002731
      267.7500000000        0.0061195647        0.0001029425
      268.6250000000        0.0062108372        0.0001056942
