# IR Spectrum
# X-Axis:  Frequency (cm-1)
# Y-Axis:  &epsilon; (M-1 cm-1)

# Peak information
#                  X                   Y
#      24.6445000000       36.2930023368
#      41.1467000000        3.6455254510
#      53.9939000000      464.4922049908
#      83.6740000000       77.7959668519
#      95.2616000000      191.5054476331
#     136.6039000000      135.1187259670
#     136.9665000000      263.1112242300
#     268.0322000000      605.6829847945
#     385.8648000000       27.7856531630
#     491.3594000000        3.4928379503
#     540.3954000000      114.4355538710
#     792.2305000000        3.7953711919
#     901.3950000000        0.0044258038
#     905.2740000000       20.6297386514
#    1099.9321000000       11.1648364502
#    1133.6625000000       15.1965983819
#    1140.7618000000      522.7964216351
#    1254.9893000000      235.6644551151
#    1414.9364000000       84.9399209316
#    1421.3996000000      106.7836300722
#    1490.3758000000        6.3238757279
#    1495.4824000000        0.9326043085
#    1500.1084000000       53.9141394053
#    1517.5364000000       49.5380575929
#    1807.7443000000      423.4474833550
#    1939.8535000000      181.7612117290
#    2739.2507000000        3.6764925479
#    3046.9531000000        1.2666237103
#    3053.6257000000       11.4912386322
#    3103.3708000000        0.2487451374
#    3110.5909000000       23.0457437334
#    3163.4642000000        2.4024931208
#    3169.0756000000       10.8446329724

# Spectra
#                  X                   Y               DY/DX
        0.0000000000        0.2206687848        0.0074779653
        0.8750000000        0.2273983760        0.0079105719
        1.7500000000        0.2345246821        0.0083857159
        2.6250000000        0.2420876455        0.0089098188
        3.5000000000        0.2501333935        0.0094906475
        4.3750000000        0.2587155652        0.0101376736
        5.2500000000        0.2678970013        0.0108625493
        6.1250000000        0.2777519170        0.0116797422
        7.0000000000        0.2883687202        0.0126073916
        7.8750000000        0.2998537082        0.0136684736
        8.7500000000        0.3123359634        0.0148924047
        9.6250000000        0.3259739084        0.0163172674
       10.5000000000        0.3409641762        0.0179929308
       11.3750000000        0.3575537416        0.0199854623
       12.2500000000        0.3760566783        0.0223834032
       13.1250000000        0.3968775091        0.0253067225
       14.0000000000        0.4205439533        0.0289195475
       14.8750000000        0.4477529427        0.0334479860
       15.7500000000        0.4794348804        0.0392040976
       16.6250000000        0.5168413884        0.0466151113
       17.5000000000        0.5616584701        0.0562498242
       18.3750000000        0.6161321342        0.0688125180
       19.2500000000        0.6831460018        0.0850163809
       20.1250000000        0.7660606794        0.1051100700
       21.0000000000        0.8678239815        0.1275818554
       21.8750000000        0.9883617989        0.1464656565
       22.7500000000        1.1192055837        0.1482112981
       23.6250000000        1.2373897641        0.1149776166
       24.5000000000        1.3090831122        0.0442371315
       25.3750000000        1.3127167672       -0.0333261133
       26.2500000000        1.2603156053       -0.0794180145
       27.1250000000        1.1854999351       -0.0860144860
       28.0000000000        1.1167094952       -0.0688046606
       28.8750000000        1.0672989170       -0.0437297626
       29.7500000000        1.0400501572       -0.0189218871
       30.6250000000        1.0333569335        0.0031218904
       31.5000000000        1.0447063855        0.0224217530
       32.3750000000        1.0720378520        0.0398147392
       33.2500000000        1.1141148426        0.0562892276
       34.1250000000        1.1705533475        0.0727936672
       35.0000000000        1.2417720994        0.0902167863
       35.8750000000        1.3289471538        0.1094014860
       36.7500000000        1.4339626268        0.1311084376
       37.6250000000        1.5592735757        0.1558333334
       38.5000000000        1.7075093745        0.1833926374
       39.3750000000        1.8806773127        0.2125338858
       40.2500000000        2.0794771311        0.2419119767
       41.1250000000        2.3046992439        0.2738581903
       42.0000000000        2.5619514866        0.3168945633
       42.8750000000        2.8653860919        0.3807395457
       43.7500000000        3.2359999708        0.4711213856
       44.6250000000        3.6988173809        0.5923702781
       45.5000000000        4.2837590995        0.7518830027
       46.3750000000        5.0293050347        0.9619385113
       47.2500000000        5.9868722762        1.2397317165
       48.1250000000        7.2245542629        1.6056243365
       49.0000000000        8.8274104103        2.0760230115
       49.8750000000       10.8860565910        2.6415754894
       50.7500000000       13.4538864834        3.2141899681
       51.6250000000       16.4401806525        3.5359907742
       52.5000000000       19.4313668855        3.1359590321
       53.3750000000       21.5934438281        1.6158909121
       54.2500000000       22.0245135894       -0.6756296107
       55.1250000000       20.5176558358       -2.6180749697
       56.0000000000       17.7742529229       -3.4610234457
       56.8750000000       14.7352216946       -3.3730307094
       57.7500000000       11.9933355166       -2.8599378060
       58.6250000000        9.7496725273       -2.2733039267
       59.5000000000        7.9927669292       -1.7594834351
       60.3750000000        6.6392744887       -1.3517145865
       61.2500000000        5.5990659780       -1.0403613867
       62.1250000000        4.7964042903       -0.8053150725
       63.0000000000        4.1731233501       -0.6274633265
       63.8750000000        3.6861433071       -0.4915711013
       64.7500000000        3.3039873712       -0.3862491573
       65.6250000000        3.0037398874       -0.3031756848
       66.5000000000        2.7687249827       -0.2362861050
       67.3750000000        2.5868315827       -0.1811162466
       68.2500000000        2.4493390191       -0.1343111267
       69.1250000000        2.3501118728       -0.0932655598
       70.0000000000        2.2850659364       -0.0558577239
       70.8750000000        2.2518390377       -0.0202423534
       71.7500000000        2.2496267700        0.0153234407
       72.6250000000        2.2791646767        0.0526442338
       73.5000000000        2.3428568637        0.0937600327
       74.3750000000        2.4450672162        0.1411466035
       75.2500000000        2.5926011066        0.1979503887
       76.1250000000        2.7954015743        0.2682350097
       77.0000000000        3.0674290796        0.3571197487
       77.8750000000        3.4274896186        0.4704183000
       78.7500000000        3.8991747115        0.6126963611
       79.6250000000        4.5075574451        0.7812084086
       80.5000000000        5.2672218530        0.9513694759
       81.3750000000        6.1530336349        1.0527943196
       82.2500000000        7.0533384784        0.9616818202
       83.1250000000        7.7505396700        0.5853523538
       84.0000000000        8.0253541123        0.0375360305
       84.8750000000        7.8550376844       -0.3824357726
       85.7500000000        7.4487444482       -0.4938656614
       86.6250000000        7.0664133002       -0.3478281352
       87.5000000000        6.8790645301       -0.0659286240
       88.3750000000        6.9684754217        0.2776488388
       89.2500000000        7.3768399074        0.6628394845
       90.1250000000        8.1423052966        1.0954314032
       91.0000000000        9.3083657108        1.5763758014
       91.8750000000       10.9028430028        2.0600588535
       92.7500000000       12.8700018511        2.3886465111
       93.6250000000       14.9455539632        2.2439612407
       94.5000000000       16.5591045925        1.3001944766
       95.3750000000       17.0208433787       -0.3028919162
       96.2500000000       16.0626593492       -1.7961361780
       97.1250000000       14.1063060202       -2.5329260802
       98.0000000000       11.8448819841       -2.5436466058
       98.8750000000        9.7599313732       -2.1900040672
       99.7500000000        8.0347002312       -1.7541931082
      100.6250000000        6.6763373826       -1.3625389360
      101.5000000000        5.6274205487       -1.0480632449
      102.3750000000        4.8208905531       -0.8064696234
      103.2500000000        4.1990346442       -0.6234067670
      104.1250000000        3.7170744030       -0.4845149723
      105.0000000000        3.3416741880       -0.3781532420
      105.8750000000        3.0483946353       -0.2955669484
      106.7500000000        2.8193809751       -0.2303565690
      107.6250000000        2.6415693523       -0.1778777941
      108.5000000000        2.5937359379       -0.1336391017
      109.3750000000        2.4931064496       -0.0973415109
      110.2500000000        2.4219395148       -0.0660254666
      111.1250000000        2.3765303766       -0.0382559056
      112.0000000000        2.3542900063       -0.0128987733
      112.8750000000        2.3535265414        0.0109764072
      113.7500000000        2.3733004207        0.0341692798
      114.6250000000        2.4133356912        0.0574055525
      115.5000000000        2.4739766013        0.0813845495
      116.3750000000        2.5561835977        0.1068224925
      117.2500000000        2.6615669255        0.1344958702
      118.1250000000        2.7924597571        0.1652891492
      119.0000000000        2.9520366556        0.2002515426
      119.8750000000        3.1444877437        0.2406686716
      120.7500000000        3.3752648291        0.2881568889
      121.6250000000        3.6514237822        0.3447910908
      122.5000000000        3.9820988253        0.4132814939
      123.3750000000        4.3791607641        0.4972217475
      124.2500000000        4.8581348660        0.6014407112
      125.1250000000        5.4394880861        0.7325039070
      126.0000000000        6.1504428325        0.8994275256
      126.8750000000        7.0275365659        1.1146828098
      127.7500000000        8.1202147930        1.3955623975
      128.6250000000        9.4957792672        1.7658926301
      129.5000000000       11.2458796449        2.2577349155
      130.3750000000       13.4940434916        2.9116632258
      131.2500000000       16.4014323097        3.7712959749
      132.1250000000       20.1615440178        4.8606632575
      133.0000000000       24.9590539995        6.1192519696
      133.8750000000       30.8398095360        7.2586792832
      134.7500000000       37.4234690232        7.5650949720
      135.6250000000       43.5175631219        5.9635190709
      136.5000000000       47.1408965713        1.9717574088
      137.3750000000       46.6690622587       -3.0011523432
      138.2500000000       42.3282894755       -6.5298639962
      139.1250000000       35.9661889176       -7.6394750526
      140.0000000000       29.4507099503       -7.0690757419
      140.8750000000       23.7762980892       -5.8605504281
      141.7500000000       19.1988768571       -4.6246765352
      142.6250000000       15.6243846226       -3.5842560101
      143.5000000000       12.8591541312       -2.7726079258
      144.3750000000       10.7147903671       -2.1579278327
      145.2500000000        9.0382410373       -1.6961727536
      146.1250000000        7.7133213266       -1.3484374035
      147.0000000000        6.6540985298       -1.0845471396
      147.8750000000        5.7974591518       -0.8822484622
      148.7500000000        5.0969395624       -0.7254381829
      149.6250000000        4.5180899696       -0.6025132092
      150.5000000000        4.0351263988       -0.5050862268
      151.3750000000        3.6285485445       -0.4270514423
      152.2500000000        3.2834496084       -0.3639236142
      153.1250000000        2.9883129360       -0.3123750213
      154.0000000000        2.7341493690       -0.2699113331
      154.8750000000        2.5138735032       -0.2346437597
      155.7500000000        2.3218484060       -0.2051277762
      156.6250000000        2.1535500328       -0.1802480109
      157.5000000000        2.0053174424       -0.1591353344
      158.3750000000        1.8741650851       -0.1411065801
      159.2500000000        1.7576404209       -0.1256203045
      160.1250000000        1.6537149524       -0.1122440203
      161.0000000000        1.5607001145       -0.1006297048
      161.8750000000        1.4771818190       -0.0904953371
      162.7500000000        1.4019691205       -0.0816108617
      163.6250000000        1.3340536574       -0.0737874312
      164.5000000000        1.2725773837       -0.0668691009
      165.3750000000        1.2168067221       -0.0607263662
      166.2500000000        1.1661117321       -0.0552511021
      167.1250000000        1.1199492171       -0.0503525714
      168.0000000000        1.0778489488       -0.0459542572
      168.8750000000        1.0394023714       -0.0419913342
      169.7500000000        1.0042532921       -0.0384086378
      170.6250000000        0.9720901709       -0.0351590239
      171.5000000000        0.9426397048       -0.0322020377
      172.3750000000        0.9156614659       -0.0295028274
      173.2500000000        0.8909434014       -0.0270312535
      174.1250000000        0.8682980412       -0.0247611553
      175.0000000000        0.8475592905       -0.0226697437
      175.8750000000        0.8285797071       -0.0207370968
      176.7500000000        0.8112281821       -0.0189457390
      177.6250000000        0.7953879585       -0.0172802879
      178.5000000000        0.7809549328       -0.0157271582
      179.3750000000        0.7678361955       -0.0142743109
      180.2500000000        0.7559487733       -0.0129110407
      181.1250000000        0.7452185431       -0.0116277961
      182.0000000000        0.7355792923       -0.0104160243
      182.8750000000        0.7269719031       -0.0092680402
      183.7500000000        0.7193436454       -0.0081769117
      184.6250000000        0.7126475608       -0.0071363626
      185.5000000000        0.7063630884       -0.0061347368
      186.3750000000        0.7014161193       -0.0051788211
      187.2500000000        0.6972899804       -0.0042577902
      188.1250000000        0.6939560986       -0.0033672427
      189.0000000000        0.6913896062       -0.0025031026
      189.8750000000        0.6895690760       -0.0016615753
      190.7500000000        0.6884762921       -0.0008391085
      191.6250000000        0.6880960542       -0.0000323567
      192.5000000000        0.6884160105        0.0007618507
      193.3750000000        0.6894265174        0.0015465380
      194.2500000000        0.6911205234        0.0023246097
      195.1250000000        0.6934934749        0.0030988752
      196.0000000000        0.6965432437        0.0038720717
      196.8750000000        0.7002700724        0.0046468853
      197.7500000000        0.7046765395        0.0054259722
      198.6250000000        0.7097675416        0.0062119779
      199.5000000000        0.7155502929        0.0070075572
      200.3750000000        0.7220343412        0.0078153933
      201.2500000000        0.7291505411        0.0086392288
      202.1250000000        0.7370762247        0.0094798213
      203.0000000000        0.7457462564        0.0103410848
      203.8750000000        0.7551800240        0.0112260127
      204.7500000000        0.7653995904        0.0121377289
      205.6250000000        0.7764298168        0.0130795103
      206.5000000000        0.7882985082        0.0140548125
      207.3750000000        0.8010365809        0.0150672960
      208.2500000000        0.8146782543        0.0161208560
      209.1250000000        0.8292612702        0.0172196532
      210.0000000000        0.8448271398        0.0183681499
      210.8750000000        0.8614214249        0.0195711476
      211.7500000000        0.8790940522        0.0208338306
      212.6250000000        0.8978996694        0.0221618131
      213.5000000000        0.9178980441        0.0235611932
      214.3750000000        0.9256482912        0.0252069338
      215.2500000000        0.9483803494        0.0267669205
      216.1250000000        0.9725176037        0.0284201954
      217.0000000000        0.9981454324        0.0301754689
      217.8750000000        1.0253572089        0.0320423226
      218.7500000000        1.0542551116        0.0340313204
      219.6250000000        1.0849510377        0.0361541362
      220.5000000000        1.1175676373        0.0384236989
      221.3750000000        1.1522394824        0.0408543607
      222.2500000000        1.1891143950        0.0434620888
      223.1250000000        1.2283549548        0.0462646880
      224.0000000000        1.2701402172        0.0492820580
      224.8750000000        1.3146676733        0.0525364917
      225.7500000000        1.3621554923        0.0560530231
      226.6250000000        1.4187019654        0.0599333467
      227.5000000000        1.4729258298        0.0640634608
      228.3750000000        1.5309174177        0.0685516648
      229.2500000000        1.5930075376        0.0734387794
      230.1250000000        1.6595651113        0.0787712413
      231.0000000000        1.7310024802        0.0846020264
      231.8750000000        1.8077815943        0.0909917495
      232.7500000000        1.8904212542        0.0980099794
      233.6250000000        1.9795056152        0.1057368174
      234.5000000000        2.0756942090        0.1142647995
      235.3750000000        2.1797337997        0.1237011994
      236.2500000000        2.2924724635        0.1341708281
      237.1250000000        2.4148763798        0.1458194546
      238.0000000000        2.5480499431        0.1588180043
      238.8750000000        2.6932599606        0.1733677388
      239.7500000000        2.8519649055        0.1897066817
      240.6250000000        3.0258504592        0.2081176327
      241.5000000000        3.2168729217        0.2289382233
      242.3750000000        3.4273125241        0.2525736104
      243.2500000000        3.6598392845        0.2795126034
      244.1250000000        3.9140923372        0.3103919231
      245.0000000000        4.2008302375        0.3458475430
      245.8750000000        4.5209305699        0.3868130893
      246.7500000000        4.8796783504        0.4343882635
      247.6250000000        5.2834339385        0.4899426461
      248.5000000000        5.7399021001        0.5551947415
      249.3750000000        6.2584813999        0.6323179990
      250.2500000000        6.8507218487        0.7240843077
      251.1250000000        7.5309297838        0.8340600243
      252.0000000000        8.3169748807        0.9668762916
      252.8750000000        9.2313772769        1.1286052951
      253.7500000000       10.3027864463        1.3272886737
      254.6250000000       11.5680126503        1.5736856204
      255.5000000000       13.0650014991        1.8824615006
      256.3750000000       14.8762457774        2.2732182005
      257.2500000000       17.0749503605        2.7734084388
      258.1250000000       19.7725301097        3.4208934192
      259.0000000000       23.1196071855        4.2682161723
      259.8750000000       27.3210641647        5.3877735519
      260.7500000000       32.6557272343        6.8768633478
      261.6250000000       39.4989997490        8.8581364611
      262.5000000000       48.3394947786       11.4618612079
      263.3750000000       59.7604188816       14.7542189799
