# IR Spectrum
# X-Axis:  Frequency (cm-1)
# Y-Axis:  &epsilon; (M-1 cm-1)

# Peak information
#                  X                   Y
#    1131.1676000000      123.8896434548
#    1946.8169000000      160.2052512011
#    2660.7442000000      138.5890363933

# Spectra
#                  X                   Y               DY/DX
     1000.0000000000        0.1127956372        0.0017182725
     1000.4500000000        0.1135728522        0.0017360570
     1000.9000000000        0.1143581255        0.0017540878
     1001.3500000000        0.1151515688        0.0017723690
     1001.8000000000        0.1159532958        0.0017909051
     1002.2500000000        0.1167634223        0.0018097005
     1002.7000000000        0.1175820658        0.0018287597
     1003.1500000000        0.1184093463        0.0018480874
     1003.6000000000        0.1192453855        0.0018676883
     1004.0500000000        0.1200903075        0.0018875673
     1004.5000000000        0.1209442385        0.0019077294
     1004.9500000000        0.1218073071        0.0019281795
     1005.4000000000        0.1226796441        0.0019489228
     1005.8500000000        0.1235613825        0.0019699647
     1006.3000000000        0.1244526579        0.0019913105
     1006.7500000000        0.1253536083        0.0020129656
     1007.2000000000        0.1262643742        0.0020349358
     1007.6500000000        0.1271850986        0.0020572268
     1008.1000000000        0.1281159273        0.0020798444
     1008.5500000000        0.1290570085        0.0021027946
     1009.0000000000        0.1300084932        0.0021260837
     1009.4500000000        0.1309705355        0.0021497178
     1009.9000000000        0.1319432920        0.0021737033
     1010.3500000000        0.1329269222        0.0021980469
     1010.8000000000        0.1339215889        0.0022227553
     1011.2500000000        0.1349274577        0.0022478352
     1011.7000000000        0.1359446973        0.0022732937
     1012.1500000000        0.1369734798        0.0022991379
     1012.6000000000        0.1380139804        0.0023253753
     1013.0500000000        0.1390663777        0.0023520132
     1013.5000000000        0.1401308536        0.0023790594
     1013.9500000000        0.1412075936        0.0024065217
     1014.4000000000        0.1422967867        0.0024344082
     1014.8500000000        0.1433986258        0.0024627270
     1015.3000000000        0.1445133071        0.0024914866
     1015.7500000000        0.1456410311        0.0025206955
     1016.2000000000        0.1467820018        0.0025503626
     1016.6500000000        0.1479364275        0.0025804969
     1017.1000000000        0.1491045205        0.0026111077
     1017.5500000000        0.1502864973        0.0026422043
     1018.0000000000        0.1514825787        0.0026737965
     1018.4500000000        0.1526929899        0.0027058941
     1018.9000000000        0.1539179607        0.0027385073
     1019.3500000000        0.1551577254        0.0027716465
     1019.8000000000        0.1564125230        0.0028053223
     1020.2500000000        0.1576825976        0.0028395456
     1020.7000000000        0.1589681979        0.0028743277
     1021.1500000000        0.1602695780        0.0029096799
     1021.6000000000        0.1615869971        0.0029456139
     1022.0500000000        0.1629207196        0.0029821419
     1022.5000000000        0.1642710157        0.0030192760
     1022.9500000000        0.1656381609        0.0030570290
     1023.4000000000        0.1670224365        0.0030954137
     1023.8500000000        0.1684241300        0.0031344434
     1024.3000000000        0.1698435344        0.0031741318
     1024.7500000000        0.1712809494        0.0032144927
     1025.2000000000        0.1727366809        0.0032555405
     1025.6500000000        0.1742110411        0.0032972898
     1026.1000000000        0.1757043491        0.0033397556
     1026.5500000000        0.1772169310        0.0033829535
     1027.0000000000        0.1787491195        0.0034268993
     1027.4500000000        0.1803012549        0.0034716091
     1027.9000000000        0.1818736848        0.0035170996
     1028.3500000000        0.1834667643        0.0035633881
     1028.8000000000        0.1850808564        0.0036104919
     1029.2500000000        0.1867163320        0.0036584292
     1029.7000000000        0.1883735705        0.0037072185
     1030.1500000000        0.1900529593        0.0037568787
     1030.6000000000        0.1917548949        0.0038074294
     1031.0500000000        0.1934797824        0.0038588906
     1031.5000000000        0.1952280361        0.0039112829
     1031.9500000000        0.1970000798        0.0039646274
     1032.4000000000        0.1987963469        0.0040189459
     1032.8500000000        0.2006172806        0.0040742606
     1033.3000000000        0.2024633343        0.0041305945
     1033.7500000000        0.2043349720        0.0041879712
     1034.2000000000        0.2062326685        0.0042464149
     1034.6500000000        0.2081569093        0.0043059505
     1035.1000000000        0.2101081915        0.0043666036
     1035.5500000000        0.2120870241        0.0044284005
     1036.0000000000        0.2140939276        0.0044913683
     1036.4500000000        0.2161294354        0.0045555349
     1036.9000000000        0.2181940932        0.0046209289
     1037.3500000000        0.2202884599        0.0046875798
     1037.8000000000        0.2224131080        0.0047555178
     1038.2500000000        0.2245686237        0.0048247742
     1038.7000000000        0.2267556074        0.0048953812
     1039.1500000000        0.2289746743        0.0049673717
     1039.6000000000        0.2312264546        0.0050407798
     1040.0500000000        0.2335115941        0.0051156406
     1040.5000000000        0.2358307545        0.0051919901
     1040.9500000000        0.2381846141        0.0052698656
     1041.4000000000        0.2405738681        0.0053493052
     1041.8500000000        0.2429992292        0.0054303484
     1042.3000000000        0.2454614283        0.0055130359
     1042.7500000000        0.2479612145        0.0055974096
     1043.2000000000        0.2504993563        0.0056835126
     1043.6500000000        0.2530766419        0.0057713895
     1044.1000000000        0.2556938798        0.0058610860
     1044.5500000000        0.2583518994        0.0059526496
     1045.0000000000        0.2610515519        0.0060461291
     1045.4500000000        0.2637937105        0.0061415746
     1045.9000000000        0.2665792717        0.0062390383
     1046.3500000000        0.2694091557        0.0063385736
     1046.8000000000        0.2722843070        0.0064402359
     1047.2500000000        0.2752056956        0.0065440822
     1047.7000000000        0.2781743175        0.0066501715
     1048.1500000000        0.2811911956        0.0067585646
     1048.6000000000        0.2842573806        0.0068693243
     1049.0500000000        0.2873739521        0.0069825155
     1049.5000000000        0.2905420193        0.0070982052
     1049.9500000000        0.2937627220        0.0072164628
     1050.4000000000        0.2970372317        0.0073373598
     1050.8500000000        0.3003667528        0.0074609701
     1051.3000000000        0.3037525233        0.0075873703
     1051.7500000000        0.3071958164        0.0077166395
     1052.2000000000        0.3106979414        0.0078488594
     1052.6500000000        0.3142602451        0.0079841146
     1053.1000000000        0.3178841130        0.0081224928
     1053.5500000000        0.3215709706        0.0082640843
     1054.0000000000        0.3253222850        0.0084089831
     1054.4500000000        0.3291395660        0.0085572861
     1054.9000000000        0.3330243681        0.0087090937
     1055.3500000000        0.3369782916        0.0088645101
     1055.8000000000        0.3410029846        0.0090236430
     1056.2500000000        0.3451001445        0.0091866040
     1056.7000000000        0.3492715198        0.0093535089
     1057.1500000000        0.3535189121        0.0095244775
     1057.6000000000        0.3578441778        0.0096996342
     1058.0500000000        0.3622492304        0.0098791079
     1058.5000000000        0.3667360424        0.0100630322
     1058.9500000000        0.3713066478        0.0102515459
     1059.4000000000        0.3759631437        0.0104447927
     1059.8500000000        0.3807076936        0.0106429221
     1060.3000000000        0.3855425292        0.0108460891
     1060.7500000000        0.3904699535        0.0110544546
     1061.2000000000        0.3954923431        0.0112681857
     1061.6500000000        0.4006121514        0.0114874561
     1062.1000000000        0.4058319115        0.0117124462
     1062.5500000000        0.4111542391        0.0119433436
     1063.0000000000        0.4165818360        0.0121803431
     1063.4500000000        0.4221174936        0.0124236474
     1063.9000000000        0.4277640960        0.0126734673
     1064.3500000000        0.4335246244        0.0129300222
     1064.8000000000        0.4394021604        0.0131935403
     1065.2500000000        0.4453998907        0.0134642590
     1065.7000000000        0.4515211107        0.0137424257
     1066.1500000000        0.4577692296        0.0140282981
     1066.6000000000        0.4641477750        0.0143221444
     1067.0500000000        0.4706603975        0.0146242442
     1067.5000000000        0.4773108765        0.0149348890
     1067.9500000000        0.4841031249        0.0152543826
     1068.4000000000        0.4910411956        0.0155830419
     1068.8500000000        0.4981292869        0.0159211975
     1069.3000000000        0.5053717494        0.0162691944
     1069.7500000000        0.5127730920        0.0166273927
     1070.2000000000        0.5203379894        0.0169961684
     1070.6500000000        0.5280712891        0.0173759143
     1071.1000000000        0.5359780193        0.0177670407
     1071.5500000000        0.5440633970        0.0181699764
     1072.0000000000        0.5523328366        0.0185851700
     1072.4500000000        0.5607919589        0.0190130902
     1072.9000000000        0.5694466003        0.0194542278
     1073.3500000000        0.5783028234        0.0199090961
     1073.8000000000        0.5873669269        0.0203782327
     1074.2500000000        0.5966454574        0.0208622005
     1074.7000000000        0.6061452204        0.0213615891
     1075.1500000000        0.6158732933        0.0218770168
     1075.6000000000        0.6258370383        0.0224091313
     1076.0500000000        0.6360441163        0.0229586124
     1076.5000000000        0.6465025012        0.0235261729
     1076.9500000000        0.6572204959        0.0241125613
     1077.4000000000        0.6682067482        0.0247185632
     1077.8500000000        0.6794702684        0.0253450041
     1078.3000000000        0.6910204476        0.0259927512
     1078.7500000000        0.7028670770        0.0266627163
     1079.2000000000        0.7150203686        0.0273558583
     1079.6500000000        0.7274909771        0.0280731860
     1080.1000000000        0.7402900229        0.0288157613
     1080.5500000000        0.7534291169        0.0295847026
     1081.0000000000        0.7669203865        0.0303811877
     1081.4500000000        0.7807765033        0.0312064584
     1081.9000000000        0.7950107129        0.0320618241
     1082.3500000000        0.8096368660        0.0329486658
     1082.8000000000        0.8246694518        0.0338684414
     1083.2500000000        0.8401236338        0.0348226903
     1083.7000000000        0.8560152875        0.0358130388
     1084.1500000000        0.8723610410        0.0368412061
     1084.6000000000        0.8891783179        0.0379090099
     1085.0500000000        0.9064853834        0.0390183740
     1085.5000000000        0.9243013935        0.0401713347
     1085.9500000000        0.9426464471        0.0413700490
     1086.4000000000        0.9615416428        0.0426168029
     1086.8500000000        0.9810091385        0.0439140202
     1087.3000000000        1.0010722155        0.0452642729
     1087.7500000000        1.0217553480        0.0466702912
     1088.2000000000        1.0430842765        0.0481349752
     1088.6500000000        1.0650860869        0.0496614074
     1089.1000000000        1.0877892960        0.0512528660
     1089.5500000000        1.1112239425        0.0529128397
     1090.0000000000        1.1354216851        0.0546450435
     1090.4500000000        1.1604159086        0.0564534357
     1090.9000000000        1.1862418372        0.0583422371
     1091.3500000000        1.2129366573        0.0603159511
     1091.8000000000        1.2405396497        0.0623793861
     1092.2500000000        1.2690923318        0.0645376798
     1092.7000000000        1.2986386124        0.0667963255
     1093.1500000000        1.3292249572        0.0691612014
     1093.6000000000        1.3609005700        0.0716386018
     1094.0500000000        1.3937175869        0.0742352723
     1094.5000000000        1.4277312881        0.0769584473
     1094.9500000000        1.4630003271        0.0798158921
     1095.4000000000        1.4995869797        0.0828159484
     1095.8500000000        1.5375574143        0.0859675847
     1096.3000000000        1.5769819868        0.0892804516
     1096.7500000000        1.6179355603        0.0927649429
     1097.2000000000        1.6604978553        0.0964322630
     1097.6500000000        1.7047538299        0.1002945009
     1098.1000000000        1.7507940968        0.1043647124
     1098.5500000000        1.7987153784        0.1086570115
     1099.0000000000        1.8486210048        0.1131866704
     1099.4500000000        1.9006214601        0.1179702319
     1099.9000000000        1.9548349818        0.1230256334
     1100.3500000000        2.0113882183        0.1283723453
     1100.8000000000        2.0704169534        0.1340315249
     1101.2500000000        2.1320669030        0.1400261881
     1101.7000000000        2.1964945940        0.1463814017
     1102.1500000000        2.2638683344        0.1531244978
     1102.6000000000        2.3343692863        0.1602853151
     1103.0500000000        2.4081926530        0.1678964682
     1103.5000000000        2.4855489952        0.1759936519
     1103.9500000000        2.5666656927        0.1846159828
     1104.4000000000        2.6517885691        0.1938063847
     1104.8500000000        2.7411837009        0.2036120242
     1105.3000000000        2.8351394354        0.2140848033
     1105.7500000000        2.9339686447        0.2252819182
     1106.2000000000        3.0380112475        0.2372664928
     1106.6500000000        3.1476370360        0.2501083014
     1107.1000000000        3.2632488488        0.2638845902
     1107.5500000000        3.3852861406        0.2786810173
     1108.0000000000        3.5142290034        0.2945927277
     1108.4500000000        3.6506027070        0.3117255855
     1108.9000000000        3.7949828339        0.3301975912
     1109.3500000000        3.9480010984        0.3501405123
     1109.8000000000        4.1103519559        0.3717017659
     1110.2500000000        4.2828001228        0.3950465967
     1110.7000000000        4.4661891527        0.4203606005
     1111.1500000000        4.6614512380        0.4478526577
     1111.6000000000        4.8696184368        0.4777583498
     1112.0500000000        5.0918355623        0.5103439473
     1112.5000000000        5.3293750158        0.5459110783
     1112.9500000000        5.5836538964        0.5848022049
     1113.4000000000        5.8562537866        0.6274070645
     1113.8500000000        6.1489436873        0.6741702650
     1114.3000000000        6.4637066733        0.7256002620
     1114.7500000000        6.8027709496        0.7822799964
     1115.2000000000        7.1686461308        0.8448795298
     1115.6500000000        7.5641657316        0.9141710884
     1116.1000000000        7.9925370601        0.9910470150
     1116.5500000000        8.4573999558        1.0765412360
     1117.0000000000        8.9628961139        1.1718549801
     1117.4500000000        9.5137511037        1.2783876412
     1117.9000000000       10.1153716305        1.3977738576
     1118.3500000000       10.7739611175        1.5319280916
     1118.8000000000       11.4966573161        1.6830982227
     1119.2500000000       12.2916963858        1.8539299109
     1119.7000000000       13.1686087283        2.0475437103
     1120.1500000000       14.1384527896        2.2676270605
     1120.6000000000       15.2140940041        2.5185432590
     1121.0500000000       16.4105369309        2.8054591226
     1121.5000000000       17.7453191946        3.1344919748
     1121.9500000000       19.2389756685        3.5128742736
     1122.4000000000       20.9155796708        3.9491296952
     1122.8500000000       22.8033634867        4.4532462294
     1123.3000000000       24.9354110452        5.0368172416
     1123.7500000000       27.3503973582        5.7130963519
     1124.2000000000       30.0933162790        6.4968698619
     1124.6500000000       33.2160805560        7.4039816105
     1125.1000000000       36.7777811335        8.4502362010
     1125.5500000000       40.8442346534        9.6492419270
     1126.0000000000       45.4862012408       11.0085237668
     1126.4500000000       50.7752908469       12.5229547768
     1126.9000000000       56.7760889764       14.1643128336
     1127.3500000000       63.5324912868       15.8658392972
     1127.8000000000       71.0459024935       17.5016675368
     1128.2500000000       79.2434699207       18.8639908311
     1128.7000000000       87.9370928915       19.6471620804
     1129.1500000000       96.7801758810       19.4575762583
     1129.6000000000      105.2396330510       17.8761818087
     1130.0500000000      112.6119467387       14.5927177847
     1130.5000000000      118.1128215948        9.5893964736
     1130.9500000000      121.0447114119        3.2827014548
     1131.4000000000      120.9944960581       -3.5030651290
     1131.8500000000      117.9694995062       -9.7782097707
     1132.3000000000      112.3949633872      -14.7290392335
     1132.7500000000      104.9744863575      -17.9541417140
     1133.2000000000       96.4920081456      -19.4837583182
     1133.6500000000       87.6464069699      -19.6345455883
     1134.1000000000       78.9645598807      -18.8264531120
     1134.5500000000       70.7872537040      -17.4508244907
     1135.0000000000       63.2980897241      -15.8100373774
     1135.4500000000       56.5668674841      -14.1088737429
     1135.9000000000       50.5903365713      -12.4708897859
     1136.3500000000       45.3236249415      -10.9612747248
     1136.8000000000       40.7017366421       -9.6072751182
     1137.2500000000       36.6529899830       -8.4134603382
     1137.7000000000       33.1067383399       -7.3720185749
     1138.1500000000       29.9973673840       -6.4692191961
     1138.6000000000       27.2660202910       -5.6892293224
     1139.0500000000       24.8610186422       -5.0162268233
     1139.5000000000       22.7375870865       -4.4354707446
     1139.9500000000       20.8572463668       -3.9337613912
     1140.4000000000       19.1870837336       -3.4995597425
     1140.8500000000       17.6990143485       -3.1229284985
     1141.3000000000       16.3690907085       -2.7953892766
     1141.7500000000       15.1768846887       -2.5097490590
     1142.2000000000       14.1049489503       -2.2599243151
     1142.6500000000       13.1383551910       -2.0407768878
     1143.1000000000       12.2643023742       -1.8479676326
     1143.5500000000       11.4717864779       -1.6778293886
     1144.0000000000       10.7513231585       -1.5272585964
     1144.4500000000       10.0947153072       -1.3936238293
