# IR Spectrum
# X-Axis:  Frequency (cm-1)
# Y-Axis:  &epsilon; (M-1 cm-1)

# Peak information
#                  X                   Y
#      36.0207000000      343.4004770794
#      43.7213000000      114.2309720783
#      66.3168000000      294.1059259040
#     108.4930000000       66.8239599512
#     133.7343000000      599.3718008839
#     234.9801000000        1.1731519394
#     270.5828000000        0.7091729952
#     357.5621000000        3.0358783309
#     408.5537000000      109.8331551164
#     456.9681000000     1110.8043382882
#     478.4290000000       13.0206238192
#     820.5524000000       22.5200593360
#     928.3884000000        0.6097614861
#     946.8472000000        4.2411567763
#     981.6097000000       70.4904435313
#    1115.1993000000      290.2281272431
#    1134.8378000000      134.8816454045
#    1155.9796000000       59.6218369991
#    1201.1410000000      100.1430445161
#    1345.6247000000       10.2849022502
#    1379.8110000000       26.0786199187
#    1424.4665000000       32.8138103108
#    1438.2135000000        2.6623471552
#    1447.8510000000      151.4493073036
#    1514.2444000000        0.7321496690
#    1516.4160000000        0.1757378886
#    1528.9206000000       12.0113451484
#    1537.1711000000       16.5485765073
#    1938.6165000000      208.5178082103
#    2711.8491000000      143.1973254871
#    3035.5305000000       22.9732046158
#    3041.0243000000       17.6488428527
#    3055.0553000000       37.2292183412
#    3097.4997000000        3.0325862849
#    3108.9853000000      126.8939767740
#    3126.0065000000       31.5313606263
#    3128.2853000000       44.1483228841
#    3720.3698000000      108.4978207708

# Spectra
#                  X                   Y               DY/DX
        0.0000000000        0.2982835912        0.0117132131
        1.0000000000        0.3104130448        0.0125598383
        2.0000000000        0.3234334804        0.0134971651
        3.0000000000        0.3374419012        0.0145381475
        4.0000000000        0.3525493887        0.0156980635
        5.0000000000        0.3688836697        0.0169950188
        6.0000000000        0.3865922483        0.0184505810
        7.0000000000        0.4058462525        0.0200905805
        8.0000000000        0.4268451870        0.0219461316
        9.0000000000        0.4498228435        0.0240549406
       10.0000000000        0.4750547023        0.0264629987
       11.0000000000        0.5028672700        0.0292267865
       12.0000000000        0.5336499517        0.0324161729
       13.0000000000        0.5678702699        0.0361182607
       14.0000000000        0.6060935461        0.0404425361
       15.0000000000        0.6490085898        0.0455278365
       16.0000000000        0.6974615612        0.0515518780
       17.0000000000        0.7525010759        0.0587444297
       18.0000000000        0.8154389497        0.0674057444
       19.0000000000        0.8879329634        0.0779326566
       20.0000000000        0.9721010130        0.0908559976
       21.0000000000        1.0706805510        0.1068949024
       22.0000000000        1.1872541907        0.1270365825
       23.0000000000        1.3265730674        0.1526547648
       24.0000000000        1.4950260050        0.1856869492
       25.0000000000        1.7013273313        0.2289003728
       26.0000000000        1.9575317188        0.2862877585
       27.0000000000        2.2805288884        0.3636379158
       28.0000000000        2.6942037227        0.4692890024
       29.0000000000        3.2323803530        0.6148781420
       30.0000000000        3.9421978907        0.8151913941
       31.0000000000        4.8857568058        1.0840049269
       32.0000000000        6.1322906674        1.4170766828
       33.0000000000        7.7196667037        1.7442931731
       34.0000000000        9.5480022740        1.8464054961
       35.0000000000       11.2161113562        1.3674534283
       36.0000000000       12.0551450621        0.2363191781
       37.0000000000       11.6882226260       -0.8952496876
       38.0000000000       10.5002249339       -1.3513127849
       39.0000000000        9.1990521363       -1.1764268423
       40.0000000000        8.2339974491       -0.7364390655
       41.0000000000        7.7230140367       -0.3031245220
       42.0000000000        7.5630713776       -0.0636033354
       43.0000000000        7.4808899252       -0.1616868408
       44.0000000000        7.1453975211       -0.5308785598
       45.0000000000        6.4401193220       -0.8429921079
       46.0000000000        5.5499842496       -0.8947371584
       47.0000000000        4.7120646899       -0.7630907409
       48.0000000000        4.0399688682       -0.5802002048
       49.0000000000        3.5461418791       -0.4122086945
       50.0000000000        3.2051879168       -0.2747347642
       51.0000000000        2.9877664974       -0.1638646422
       52.0000000000        2.8714221836       -0.0711208094
       53.0000000000        2.8422829674        0.0118662194
       54.0000000000        2.8944240213        0.0926507898
       55.0000000000        3.0292668399        0.1785023240
       56.0000000000        3.2557298460        0.2773144292
       57.0000000000        3.5913925610        0.3987184336
       58.0000000000        4.0648769531        0.5554032185
       59.0000000000        4.7196085767        0.7644954312
       60.0000000000        5.6186698577        1.0480824042
       61.0000000000        6.8485029332        1.4294231013
       62.0000000000        8.5127870574        1.9143737533
       63.0000000000       10.6908403101        2.4336568161
       64.0000000000       13.3067471143        2.7219530162
       65.0000000000       15.8794061795        2.2461016215
       66.0000000000       17.4101184277        0.6464207563
       67.0000000000       17.0236854242       -1.3736379731
       68.0000000000       14.9508773578       -2.5744643837
       69.0000000000       12.2418508676       -2.7016074868
       70.0000000000        9.7276863637       -2.2819942137
       71.0000000000        7.7081943720       -1.7615044424
       72.0000000000        6.1778605138       -1.3169062336
       73.0000000000        5.0381799147       -0.9795863982
       74.0000000000        4.1881453582       -0.7337420491
       75.0000000000        3.5481945215       -0.5560015574
       76.0000000000        3.0602112193       -0.4266810779
       77.0000000000        2.6835472556       -0.3313612980
       78.0000000000        2.3895452912       -0.2599746881
       79.0000000000        2.1579560770       -0.2055838711
       80.0000000000        1.9743248811       -0.1633985215
       81.0000000000        1.8282144553       -0.1300789399
       82.0000000000        1.7120058035       -0.1032647040
       83.0000000000        1.6200868058       -0.0812600790
       84.0000000000        1.5482996013       -0.0628238390
       85.0000000000        1.4935615219       -0.0470274896
       86.0000000000        1.4536039253       -0.0331580685
       87.0000000000        1.4267927019       -0.0206499079
       88.0000000000        1.4120070019       -0.0090350352
       89.0000000000        1.4085612657        0.0020948064
       90.0000000000        1.4161615797        0.0131195553
       91.0000000000        1.4348918209        0.0244196289
       92.0000000000        1.4652288090        0.0364057485
       93.0000000000        1.5080894028        0.0495537163
       94.0000000000        1.5649168355        0.0644490657
       95.0000000000        1.6378193771        0.0818484216
       96.0000000000        1.7297827023        0.1027675591
       97.0000000000        1.8449895594        0.1286108856
       98.0000000000        1.9892980830        0.1613632830
       99.0000000000        2.1709539879        0.2038705328
      100.0000000000        2.4016367985        0.2602281341
      101.0000000000        2.6979390495        0.3362416424
      102.0000000000        3.0832490112        0.4396900790
      103.0000000000        3.5894245643        0.5793510639
      104.0000000000        4.2556737401        0.7595334001
      105.0000000000        5.1166231367        0.9620702611
      106.0000000000        6.1613201316        1.1051847627
      107.0000000000        7.2462118778        1.0048769932
      108.0000000000        8.0287875434        0.4910920624
      109.0000000000        8.1466727837       -0.2542903719
      110.0000000000        7.6054414303       -0.7578159874
      111.0000000000        6.7746914571       -0.8438583876
      112.0000000000        5.9992487426       -0.6844297951
      113.0000000000        5.4256501950       -0.4616120145
      114.0000000000        5.0699578667       -0.2549682288
      115.0000000000        4.9046730939       -0.0807958490
      116.0000000000        4.8995959401        0.0671875894
      117.0000000000        5.0340875747        0.2002704952
      118.0000000000        5.2989080723        0.3296402315
      119.0000000000        5.6956358196        0.4658172983
      120.0000000000        6.2363571289        0.6194851723
      121.0000000000        6.9444503781        0.8027871881
      122.0000000000        7.8568348942        1.0309719490
      123.0000000000        9.0281059799        1.3245627921
      124.0000000000       10.5372231922        1.7123492565
      125.0000000000       12.4977274192        2.2354866196
      126.0000000000       15.0725955002        2.9525642959
      127.0000000000       18.4939676102        3.9436295053
      128.0000000000       23.0833491934        5.3046736904
      129.0000000000       29.2513533439        7.1047774884
      130.0000000000       37.4079244507        9.2321636168
      131.0000000000       47.6106604427       11.0048645332
      132.0000000000       58.7184574020       10.6492920951
      133.0000000000       67.4265795044        5.9495454431
      134.0000000000       69.3707952254       -2.2998495329
      135.0000000000       63.3428597154       -9.0899338402
      136.0000000000       52.7836296140      -11.2838517471
      137.0000000000       41.8670783764      -10.2163675823
      138.0000000000       32.6804828796       -8.1151870229
      139.0000000000       25.5895037005       -6.1279948231
      140.0000000000       20.2790296166       -4.5675428047
      141.0000000000       16.3164023809       -3.4191592931
      142.0000000000       13.3344007073       -2.5900436261
      143.0000000000       11.0598729864       -1.9910188593
      144.0000000000        9.2985558192       -1.5540874317
      145.0000000000        7.9138701821       -1.2311328283
      146.0000000000        6.8094856883       -0.9889320490
      147.0000000000        5.9167838348       -0.8046283733
      148.0000000000        5.1862551459       -0.6624015827
      149.0000000000        4.5816790666       -0.5511851875
      150.0000000000        4.0761852448       -0.4631397878
      151.0000000000        3.6495685032       -0.3926376154
      152.0000000000        3.2864387881       -0.3355844532
      153.0000000000        2.9749307649       -0.2889629434
      154.0000000000        2.7057922127       -0.2505216371
      155.0000000000        2.4717317684       -0.2185607340
      156.0000000000        2.2669464036       -0.1917826263
      157.0000000000        2.0867749976       -0.1691863673
      158.0000000000        1.9274414504       -0.1499922656
      159.0000000000        1.7858621233       -0.1335873838
      160.0000000000        1.6595000198       -0.1194857125
      161.0000000000        1.5462532907       -0.1072987625
      162.0000000000        1.4443692057       -0.0967136336
      163.0000000000        1.3523772037       -0.0874765039
      164.0000000000        1.2690363668       -0.0793800898
      165.0000000000        1.1932938953       -0.0722540394
      166.0000000000        1.1242520416       -0.0659575149
      167.0000000000        1.0611416008       -0.0603734214
      168.0000000000        1.0033005195       -0.0554038845
      169.0000000000        0.9501565290       -0.0509666812
      170.0000000000        0.9012129645       -0.0469924061
      171.0000000000        0.8560371214       -0.0434222070
      172.0000000000        0.8142506455       -0.0402059638
      173.0000000000        0.7755215618       -0.0373008180
      174.0000000000        0.7395576311       -0.0346699765
      175.0000000000        0.7061007893       -0.0322817357
      176.0000000000        0.6749224717       -0.0301086793
      177.0000000000        0.6458196665       -0.0281270181
      178.0000000000        0.6186115694       -0.0263160426
      179.0000000000        0.5931367393       -0.0246576677
      180.0000000000        0.5692506686       -0.0231360528
      181.0000000000        0.5468237037       -0.0217372828
      182.0000000000        0.5257392564       -0.0204491001
      183.0000000000        0.5058922637       -0.0192606779
      184.0000000000        0.4871878549       -0.0181624284
      185.0000000000        0.4695401971       -0.0171458393
      186.0000000000        0.4528714908       -0.0162033341
      187.0000000000        0.4371110953       -0.0153281534
      188.0000000000        0.4221947645       -0.0145142518
      189.0000000000        0.4080639779       -0.0137562097
      190.0000000000        0.3946653541       -0.0130491568
      191.0000000000        0.3819501352       -0.0123887057
      192.0000000000        0.3698737336       -0.0117708943
      193.0000000000        0.3583953328       -0.0111921351
      194.0000000000        0.3474775350       -0.0106491707
      195.0000000000        0.3370860515       -0.0101390344
      196.0000000000        0.3271894294       -0.0096590157
      197.0000000000        0.3111468231       -0.0091245323
      198.0000000000        0.3028276726       -0.0086915992
      199.0000000000        0.2943391660       -0.0082891093
      200.0000000000        0.2862423851       -0.0079078300
      201.0000000000        0.2785170531       -0.0075459127
      202.0000000000        0.2711446892       -0.0072016099
      203.0000000000        0.2641085186       -0.0068732534
      204.0000000000        0.2547003690       -0.0065256480
      205.0000000000        0.2483260403       -0.0062250019
      206.0000000000        0.2422466425       -0.0059355231
      207.0000000000        0.2364518032       -0.0056556150
      208.0000000000        0.2309327729       -0.0053836222
      209.0000000000        0.2256825044       -0.0051177874
      210.0000000000        0.2206957802       -0.0048561988
      211.0000000000        0.2159693992       -0.0045967228
      212.0000000000        0.2115024399       -0.0043369170
      213.0000000000        0.2072966240       -0.0040739157
      214.0000000000        0.2033568128       -0.0038042756
      215.0000000000        0.1996916838       -0.0035237672
      216.0000000000        0.1963146532       -0.0032270858
      217.0000000000        0.1932451416       -0.0029074484
      218.0000000000        0.1905103213       -0.0025560217
      219.0000000000        0.1881475517       -0.0021611010
      220.0000000000        0.1862078104       -0.0017069160
      221.0000000000        0.1847605806       -0.0011718719
      222.0000000000        0.1839008968       -0.0005259325
      223.0000000000        0.1837596157        0.0002733048
      224.0000000000        0.1845185328        0.0012865071
      225.0000000000        0.1864327534        0.0026013848
      226.0000000000        0.1898637007        0.0043453258
      227.0000000000        0.1848626440        0.0068321052
      228.0000000000        0.1932210160        0.0100547437
      229.0000000000        0.2053689922        0.0144678568
      230.0000000000        0.2226533901        0.0203592577
      231.0000000000        0.2465471788        0.0275829104
      232.0000000000        0.2777405075        0.0344526039
      233.0000000000        0.3136841343        0.0358760501
      234.0000000000        0.3449454035        0.0238601057
      235.0000000000        0.3563262873       -0.0026947443
      236.0000000000        0.3396910645       -0.0288678388
      237.0000000000        0.3037565159       -0.0402355721
      238.0000000000        0.2636628188       -0.0384533118
      239.0000000000        0.2285216231       -0.0315109250
      240.0000000000        0.2006799752       -0.0243368426
      241.0000000000        0.1793798824       -0.0185222532
      242.0000000000        0.1631407845       -0.0141808031
      243.0000000000        0.1506252885       -0.0110184172
      244.0000000000        0.1408186514       -0.0087144591
      245.0000000000        0.1329954536       -0.0070156911
      246.0000000000        0.1266467206       -0.0057404061
      247.0000000000        0.1214160361       -0.0047622136
      248.0000000000        0.1170527362       -0.0039935532
      249.0000000000        0.1377961895       -0.0030672757
      250.0000000000        0.1349969974       -0.0025455331
      251.0000000000        0.1326811627       -0.0020959169
      252.0000000000        0.1307894213       -0.0016936775
      253.0000000000        0.1292847671       -0.0013186379
      254.0000000000        0.1281490150       -0.0009530078
      255.0000000000        0.1273813480       -0.0005795485
      256.0000000000        0.1269986459       -0.0001798004
      257.0000000000        0.1270376717        0.0002679089
      258.0000000000        0.1275594892        0.0007909964
      259.0000000000        0.1286568531        0.0014261161
      260.0000000000        0.1304658010        0.0022241799
      261.0000000000        0.1331833206        0.0032576086
      262.0000000000        0.1370936502        0.0046303981
      263.0000000000        0.1426058751        0.0064902751
      264.0000000000        0.1503026071        0.0090367610
      265.0000000000        0.1609858528        0.0125004893
      266.0000000000        0.1756590213        0.0170154085
      267.0000000000        0.1952513044        0.0221846407
      268.0000000000        0.2196269662        0.0260485214
      269.0000000000        0.2414797956        0.0240019885
      270.0000000000        0.2599675220        0.0110733595
      271.0000000000        0.2611180617       -0.0089774341
      272.0000000000        0.2438948823       -0.0236968605
      273.0000000000        0.2175379979       -0.0273595191
      274.0000000000        0.1914804130       -0.0240985732
      275.0000000000        0.1699306664       -0.0189620127
      276.0000000000        0.1533772489       -0.0143049159
      277.0000000000        0.1409659545       -0.0106934784
      278.0000000000        0.1316700135       -0.0080395222
      279.0000000000        0.1246440285       -0.0061153409
      280.0000000000        0.1192656002       -0.0047141898
      281.0000000000        0.1150934920       -0.0036810547
      282.0000000000        0.1118175482       -0.0029068660
      283.0000000000        0.1092187730       -0.0023164073
      284.0000000000        0.1071409270       -0.0018578879
      285.0000000000        0.1054711064       -0.0014953916
      286.0000000000        0.1041266119       -0.0012037297
      287.0000000000        0.1030460558       -0.0009650053
      288.0000000000        0.1021832909       -0.0007663262
      289.0000000000        0.1015032200       -0.0005982774
      290.0000000000        0.1009788683       -0.0004538892
      291.0000000000        0.1005893109       -0.0003279343
      292.0000000000        0.1003181889       -0.0002164419
      293.0000000000        0.1001526316       -0.0001163582
      294.0000000000        0.0568535189        0.0005138242
      295.0000000000        0.0574048189        0.0005877585
      296.0000000000        0.0580272317        0.0006562708
      297.0000000000        0.3334879061        0.0041537462
