# IR Spectrum
# X-Axis:  Frequency (cm-1)
# Y-Axis:  &epsilon; (M-1 cm-1)

# Peak information
#                  X                   Y
#      31.4043000000      214.5468378978
#      53.9892000000      355.0756689297
#      71.7242000000       50.3484531369
#      95.3951000000       36.6508120175
#     116.6308000000       67.5350440693
#     202.3119000000       80.1855232905
#     220.8778000000       30.6865885802
#     280.4036000000       58.5042454175
#     358.5233000000     1054.0571450470
#     425.7141000000       35.7272112214
#     428.9905000000       53.7966807976
#     598.0922000000      111.1669653512
#     790.2439000000      578.3875766840
#     836.2917000000        1.7893552729
#     903.4391000000       98.6346193624
#     923.9544000000       41.7555946413
#    1039.1810000000       13.1039819532
#    1051.7997000000      317.6419192271
#    1101.1507000000      177.6897447226
#    1106.4442000000       23.6516672922
#    1195.9257000000       15.4355238196
#    1235.6080000000      346.7430938616
#    1289.3823000000      285.2513987111
#    1313.6748000000        0.2177401845
#    1374.2990000000       13.6312493061
#    1431.8006000000        2.1894588349
#    1435.7364000000        7.9997101849
#    1472.3720000000      139.8548272646
#    1480.0863000000      242.2363712159
#    1500.9361000000       11.5038280896
#    1518.9131000000       10.9030506541
#    1525.1539000000        0.3905291336
#    1535.0480000000       22.7243004044
#    1556.7825000000        3.7301079945
#    2938.3241000000       95.6859632711
#    3018.8027000000       90.6817973185
#    3044.7066000000       31.1137469060
#    3052.6880000000       64.9482251460
#    3063.0537000000       18.5335062650
#    3109.6560000000       29.4262792868
#    3133.6052000000       34.1014233630
#    3145.7810000000       20.2226816454
#    3181.2358000000       79.3378528399
#    3526.2747000000      649.1550619057
#    3752.3672000000       25.3374239950

# Spectra
#                  X                   Y               DY/DX
        0.0000000000        0.2068757853        0.0096979703
        1.0000000000        0.2169621819        0.0104895378
        2.0000000000        0.2278865476        0.0113762503
        3.0000000000        0.2397515065        0.0123735403
        4.0000000000        0.2526766495        0.0135000263
        5.0000000000        0.2668021052        0.0147783170
        6.0000000000        0.2822930291        0.0162360560
        7.0000000000        0.2993452923        0.0179072916
        8.0000000000        0.3181927490        0.0198342886
        9.0000000000        0.3391166041        0.0220699482
       10.0000000000        0.3624575984        0.0246810718
       11.0000000000        0.3886320174        0.0277528112
       12.0000000000        0.4181529427        0.0313948038
       13.0000000000        0.4516587740        0.0357497272
       14.0000000000        0.4899519559        0.0410053761
       15.0000000000        0.5340522018        0.0474119185
       16.0000000000        0.5852705736        0.0553068657
       17.0000000000        0.6453139326        0.0651516436
       18.0000000000        0.7164341492        0.0775857645
       19.0000000000        0.8016439506        0.0935078064
       20.0000000000        0.9050326919        0.1141970599
       21.0000000000        1.0322320961        0.1414956203
       22.0000000000        1.1911044426        0.1780752983
       23.0000000000        1.3927480733        0.2278057295
       24.0000000000        1.6529088170        0.2961795751
       25.0000000000        1.9937462976        0.3905097154
       26.0000000000        2.4452952326        0.5188195370
       27.0000000000        3.0439386646        0.6841116153
       28.0000000000        3.8197560238        0.8660582262
       29.0000000000        4.7549345446        0.9809072245
       30.0000000000        5.6999073537        0.8505400657
       31.0000000000        6.3222065848        0.3324108801
       32.0000000000        6.3007589293       -0.3668375576
       33.0000000000        5.6785013688       -0.8105274561
       34.0000000000        4.8102006962       -0.8736239890
       35.0000000000        4.0000591197       -0.7285304557
       36.0000000000        3.3674209408       -0.5370475575
       37.0000000000        2.9184469130       -0.3663900405
       38.0000000000        2.6232725872       -0.2293070626
       39.0000000000        2.4505655991       -0.1199409179
       40.0000000000        2.3773447658       -0.0287430768
       41.0000000000        2.3900396793        0.0532997597
       42.0000000000        2.4835781767        0.1342341914
       43.0000000000        2.6695758559        0.2219460462
       44.0000000000        2.9412595195        0.3247504316
       45.0000000000        3.3276130147        0.4532763574
       46.0000000000        3.8609668902        0.6214259876
       47.0000000000        4.5898051917        0.8477634765
       48.0000000000        5.5835452916        1.1552460588
       49.0000000000        6.9344625855        1.5644204026
       50.0000000000        8.7442542279        2.0659785459
       51.0000000000       11.0614368130        2.5444415126
       52.0000000000       13.7116355388        2.6485006583
       53.0000000000       16.0438358693        1.8224378687
       54.0000000000       17.0019461774       -0.0190013401
       55.0000000000       16.0110269475       -1.8457528235
       56.0000000000       13.6685143535       -2.6464899857
       57.0000000000       11.0289307532       -2.5273708166
       58.0000000000        8.7318966043       -2.0438485418
       59.0000000000        6.9450589076       -1.5408196048
       60.0000000000        5.6185305682       -1.1298232612
       61.0000000000        4.6556315546       -0.8183592464
       62.0000000000        3.9594423077       -0.5849178241
       63.0000000000        3.4678964812       -0.4053241008
       64.0000000000        3.1376397395       -0.2593301733
       65.0000000000        2.9434783155       -0.1307090112
       66.0000000000        2.8748247741       -0.0063921049
       67.0000000000        2.9323878683        0.1227140179
       68.0000000000        3.1217907784        0.2555836479
       69.0000000000        3.4360141431        0.3640083219
       70.0000000000        3.8159923838        0.3696137673
       71.0000000000        4.1067387100        0.1744602084
       72.0000000000        4.1081820720       -0.1823576984
       73.0000000000        3.7652814008       -0.4735402380
       74.0000000000        3.2322840187       -0.5593205919
       75.0000000000        2.6949785074       -0.5006753787
       76.0000000000        2.2451777799       -0.3972739911
       77.0000000000        1.8979824538       -0.2999843260
       78.0000000000        1.6385128594       -0.2223545490
       79.0000000000        1.4470310583       -0.1633639953
       80.0000000000        1.3070728555       -0.1185238248
       81.0000000000        1.2067266218       -0.0834860773
       82.0000000000        1.1379971311       -0.0547853122
       83.0000000000        1.0959462195       -0.0297299183
       84.0000000000        1.0780606213       -0.0061105354
       85.0000000000        1.0839212389        0.0181007155
       86.0000000000        1.1151671151        0.0450405902
       87.0000000000        1.1757511395        0.0772501395
       88.0000000000        1.2724924195        0.1179649503
       89.0000000000        1.4158690286        0.1712613254
       90.0000000000        1.6206845450        0.2415001128
       91.0000000000        1.9051877085        0.3303371344
       92.0000000000        2.2843764105        0.4271492423
       93.0000000000        2.7481941728        0.4881431042
       94.0000000000        3.2178444831        0.4206095690
       95.0000000000        3.5198601441        0.1515681937
       96.0000000000        3.4884123544       -0.2096850392
       97.0000000000        3.1476980141       -0.4368319062
       98.0000000000        2.6822763173       -0.4669762526
       99.0000000000        2.2490991461       -0.3901075391
      100.0000000000        1.9092978101       -0.2896950800
      101.0000000000        1.6657833751       -0.2001710831
      102.0000000000        1.5031127473       -0.1279028282
      103.0000000000        1.4052822398       -0.0696760628
      104.0000000000        1.3608025961       -0.0203361083
      105.0000000000        1.3633080114        0.0250842905
      106.0000000000        1.4112031812        0.0712030246
      107.0000000000        1.5075075264        0.1227255809
      108.0000000000        1.6602454043        0.1850679293
      109.0000000000        1.8834951765        0.2650311941
      110.0000000000        2.1990517472        0.3712801466
      111.0000000000        2.6381328843        0.5136830202
      112.0000000000        3.2407392659        0.6984685176
      113.0000000000        4.0450764529        0.9113304065
      114.0000000000        5.0488232998        1.0763780335
      115.0000000000        6.1207529628        1.0078502825
      116.0000000000        6.9137673289        0.4991584652
      117.0000000000        7.0094035309       -0.3211705526
      118.0000000000        6.3404922788       -0.9459881429
      119.0000000000        5.2743283874       -1.1165995814
      120.0000000000        4.2058880167       -0.9915557359
      121.0000000000        3.3268227609       -0.7820206264
      122.0000000000        2.6440986141       -0.5898531506
      123.0000000000        2.1325943901       -0.4404218078
      124.0000000000        1.7499555079       -0.3307344742
      125.0000000000        1.4609910606       -0.2514928977
      126.0000000000        1.2397072503       -0.1941141320
      127.0000000000        1.0676526367       -0.1521301466
      128.0000000000        0.9318506302       -0.1209818799
      129.0000000000        0.8231361616       -0.0975239250
      130.0000000000        0.7349683934       -0.0795908826
      131.0000000000        0.6626179440       -0.0656818880
      132.0000000000        0.6026171829       -0.0547451832
      133.0000000000        0.5523879551       -0.0460342052
      134.0000000000        0.5099874903       -0.0390118423
      135.0000000000        0.4739330684       -0.0332864431
      136.0000000000        0.4430795289       -0.0285686638
      137.0000000000        0.4165325970       -0.0246420445
      138.0000000000        0.3935867686       -0.0213427025
      139.0000000000        0.3736802422       -0.0185451443
      140.0000000000        0.3563618312       -0.0161522308
      141.0000000000        0.3412663974       -0.0140879938
      142.0000000000        0.3280964181       -0.0122924346
      143.0000000000        0.3166080180       -0.0107177148
      144.0000000000        0.3066002872       -0.0093253382
      145.0000000000        0.2979070436       -0.0080840422
      146.0000000000        0.2903904313       -0.0069682070
      147.0000000000        0.2839359119       -0.0059566406
      148.0000000000        0.2784483236       -0.0050316452
      149.0000000000        0.2738487659       -0.0041782895
      150.0000000000        0.2700721288       -0.0033838390
      151.0000000000        0.2670651318       -0.0026373024
      152.0000000000        0.2647847685       -0.0019290683
      153.0000000000        0.2631970797       -0.0012506089
      154.0000000000        0.2622761956       -0.0005942358
      155.0000000000        0.2620036026        0.0000471058
      156.0000000000        0.2623675997        0.0006800147
      157.0000000000        0.2633629223        0.0013107892
      158.0000000000        0.2649905136        0.0019455694
      159.0000000000        0.2672574339        0.0025904713
      160.0000000000        0.2701769013        0.0032517164
      161.0000000000        0.2737684633        0.0039357638
      162.0000000000        0.2780583022        0.0046494486
      163.0000000000        0.2830796852        0.0054001307
      164.0000000000        0.2888735703        0.0061958622
      165.0000000000        0.2954893919        0.0070455773
      166.0000000000        0.3029860503        0.0079593139
      167.0000000000        0.3114331430        0.0089484764
      168.0000000000        0.3209124845        0.0100261517
      169.0000000000        0.3315199736        0.0112074927
      170.0000000000        0.3433678875        0.0125101901
      171.0000000000        0.3565877012        0.0139550576
      172.0000000000        0.3713335628        0.0155667636
      173.0000000000        0.3877865906        0.0173747532
      174.0000000000        0.4061602133        0.0194144218
      175.0000000000        0.4267068396        0.0217286175
      176.0000000000        0.4497262400        0.0243695829
      177.0000000000        0.4755761495        0.0274014848
      178.0000000000        0.5046857773        0.0309037390
      179.0000000000        0.5375731553        0.0349754203
      180.0000000000        0.5748676041        0.0397411673
      181.0000000000        0.6173390866        0.0453591704
      182.0000000000        0.6659369292        0.0520320885
      183.0000000000        0.7218414225        0.0600221379
      184.0000000000        0.7865333268        0.0696721857
      185.0000000000        0.8618885690        0.0814355921
      186.0000000000        0.9503088078        0.0959189506
      187.0000000000        1.0549037083        0.1139440582
      188.0000000000        1.1797486718        0.1366388515
      189.0000000000        1.3302539588        0.1655723266
      190.0000000000        1.5136998957        0.2029564755
      191.0000000000        1.7400213556        0.2519498097
      192.0000000000        2.0193475760        0.3171564444
      193.0000000000        2.3782343717        0.4051085524
      194.0000000000        2.8403148486        0.5254456686
      195.0000000000        3.4443956168        0.6917477462
      196.0000000000        4.2450746150        0.9219201675
      197.0000000000        5.3159764616        1.2349519414
      198.0000000000        6.7447074061        1.6353291788
      199.0000000000        8.8038187132        2.0673422744
      200.0000000000       11.0213100056        2.3040332512
      201.0000000000       13.1989851260        1.9037091061
      202.0000000000       14.5056981738        0.5699184325
      203.0000000000       14.2174155960       -1.1073302730
      204.0000000000       12.5322729778       -2.0983243492
      205.0000000000       10.3260945275       -2.1961014320
      206.0000000000        8.2896036691       -1.8396472468
      207.0000000000        6.6724013615       -1.3981821432
      208.0000000000        5.4718413931       -1.0171272349
      209.0000000000        4.6094009387       -0.7211985693
      210.0000000000        4.0059346095       -0.4956524150
      211.0000000000        3.6018825778       -0.3188421900
      212.0000000000        3.3585665453       -0.1711876420
      213.0000000000        3.2553503577       -0.0360628463
      214.0000000000        3.2768387655        0.1014739032
      215.0000000000        3.4531638048        0.2549066226
      216.0000000000        3.7956493134        0.4349506181
      217.0000000000        4.3313491578        0.6385309665
      218.0000000000        5.0662948022        0.8197498142
      219.0000000000        5.9197232826        0.8443890221
      220.0000000000        6.6360899453        0.5185892664
      221.0000000000        6.8381022195       -0.1466219140
      222.0000000000        6.3626123532       -0.7560887726
      223.0000000000        5.4568459048       -0.9893707609
      224.0000000000        4.4858964211       -0.9195606800
      225.0000000000        3.6527391508       -0.7409910509
      226.0000000000        3.0023723977       -0.5644312524
      227.0000000000        2.5117630235       -0.4232396517
      228.0000000000        2.1437491466       -0.3182579779
      229.0000000000        1.8657232823       -0.2418628334
      230.0000000000        1.6531212812       -0.1862383771
      231.0000000000        1.4883677881       -0.1453092917
      232.0000000000        1.3571161587       -0.1147177225
      233.0000000000        1.2545182696       -0.0915083057
      234.0000000000        1.1723448364       -0.0735838005
      235.0000000000        1.1060730471       -0.0595062008
      236.0000000000        1.0523895869       -0.0482666817
      237.0000000000        1.0088349592       -0.0391478755
      238.0000000000        0.9735609951       -0.0316321273
      239.0000000000        0.9451638351       -0.0253401714
      240.0000000000        0.9225675503       -0.0199897820
      241.0000000000        0.9049420871       -0.0153675662
      242.0000000000        0.8916447709       -0.0113094647
      243.0000000000        0.8821782051       -0.0076870742
      244.0000000000        0.8761597573       -0.0043978999
      245.0000000000        0.8732993691       -0.0013582829
      246.0000000000        0.8733834655        0.0015018389
      247.0000000000        0.8762634362        0.0042429147
      248.0000000000        0.8818476444        0.0069189100
      249.0000000000        0.8900962639        0.0095798728
      250.0000000000        0.9010184920        0.0122741533
      251.0000000000        0.9146718836        0.0150504518
      252.0000000000        0.9311637110        0.0179598464
      253.0000000000        0.9506544009        0.0210579446
      254.0000000000        0.9733632496        0.0244073166
      255.0000000000        0.9995767862        0.0280803889
      256.0000000000        1.0277827224        0.0321863980
      257.0000000000        1.0622192580        0.0367820695
      258.0000000000        1.1015603013        0.0420191163
      259.0000000000        1.1465241121        0.0480574393
      260.0000000000        1.1980092095        0.0550997511
      261.0000000000        1.2571442123        0.0634064363
      262.0000000000        1.3253552787        0.0733162489
      263.0000000000        1.4044582282        0.0852755214
      264.0000000000        1.4967857356        0.0998799205
      265.0000000000        1.6053650040        0.1179349061
      266.0000000000        1.7424283523        0.1406477131
      267.0000000000        1.8968399294        0.1693472365
      268.0000000000        2.0838621477        0.2062948753
      269.0000000000        2.3256804651        0.2547282909
      270.0000000000        2.6108897252        0.3187840833
      271.0000000000        2.9706279057        0.4050737846
      272.0000000000        3.4315263265        0.5229631780
      273.0000000000        4.0314705709        0.6857584644
      274.0000000000        4.8238880780        0.9111826292
      275.0000000000        5.8812876888        1.2186658334
      276.0000000000        7.2915119320        1.6153732433
      277.0000000000        9.1226327727        2.0516411818
      278.0000000000       11.3386136303        2.3231020082
      279.0000000000       13.5694166200        1.9957641072
      280.0000000000       15.0037677660        0.7225882888
      281.0000000000       14.8583925426       -0.9929561057
      282.0000000000       13.2362622843       -2.0882522544
      283.0000000000       10.9985014934       -2.2602189959
      284.0000000000        8.8818991665       -1.9296414694
      285.0000000000        7.1722390746       -1.4913827640
      286.0000000000        5.8786530897       -1.1103825049
      287.0000000000        4.9209995757       -0.8195385487
      288.0000000000        4.2133571805       -0.6071774867
      289.0000000000        3.6870765631       -0.4536413023
      290.0000000000        3.2921588316       -0.3420077030
      291.0000000000        2.9932944820       -0.2597996217
      292.0000000000        2.7656906700       -0.1982878928
      293.0000000000        2.5918446476       -0.1514595775
