# IR Spectrum
# X-Axis:  Frequency (cm-1)
# Y-Axis:  &epsilon; (M-1 cm-1)

# Peak information
#                  X                   Y
#      28.6391000000      442.1628198180
#      33.2797000000       73.2914529776
#      70.6408000000      357.5846597056
#      84.7085000000       36.2165142483
#     106.4362000000       64.5470362051
#     124.1864000000      102.6017047096
#     148.9886000000        5.7489205270
#     178.5318000000      107.5381246715
#     223.5246000000       22.5237826764
#     389.4936000000       58.0187750126
#     427.0165000000        3.7267192745
#     492.9215000000        2.2968991632
#     554.2953000000      166.4232654642
#     602.9842000000       80.0612982627
#     760.3183000000     1029.2617922689
#     799.2035000000        6.3255033038
#     903.8454000000        0.6148430442
#     916.3448000000       19.5298077501
#     923.9356000000       43.0012748319
#    1039.9023000000       41.7967001562
#    1104.7624000000       63.2341730075
#    1108.2313000000       38.6178024211
#    1136.6960000000       16.2580711952
#    1232.9923000000      358.0741099287
#    1267.9916000000      212.8816960134
#    1371.4915000000       13.2559930639
#    1416.5053000000       94.1406955300
#    1423.9468000000      127.6385903650
#    1436.1401000000        6.8465936999
#    1477.6551000000      323.4479878023
#    1491.2581000000        8.6036756239
#    1495.4951000000       19.1590403973
#    1500.4431000000        8.9373335153
#    1502.5536000000       57.6903369240
#    1520.9865000000       66.1781592066
#    1523.3461000000        3.0137593307
#    1791.2794000000      514.2818428958
#    2951.3949000000       83.1701717347
#    3046.5357000000       33.8739279401
#    3047.4089000000        3.8842641079
#    3054.4930000000       11.4453977328
#    3104.5565000000        2.2837262106
#    3109.4956000000       30.9089889804
#    3112.0211000000       17.5166944827
#    3170.5082000000        9.4471907204
#    3172.6149000000        1.1288108248
#    3180.6618000000       80.1868849169
#    3537.2001000000      689.4558671368

# Spectra
#                  X                   Y               DY/DX
        0.0000000000        0.3362142286        0.0186224597
        1.0000000000        0.3557366680        0.0204626682
        2.0000000000        0.3772271889        0.0225660507
        3.0000000000        0.4009728761        0.0249821377
        4.0000000000        0.4273159202        0.0277720849
        5.0000000000        0.4566668106        0.0310119634
        6.0000000000        0.4895213376        0.0347971456
        7.0000000000        0.5264826974        0.0392482108
        8.0000000000        0.5682905063        0.0445189765
        9.0000000000        0.6158592620        0.0508075404
       10.0000000000        0.6703298726        0.0583716334
       11.0000000000        0.7331394663        0.0675502193
       12.0000000000        0.8061170824        0.0787942510
       13.0000000000        0.8916164614        0.0927110110
       14.0000000000        0.9927026629        0.1101288169
       15.0000000000        1.1134177262        0.1321925380
       16.0000000000        1.2591636467        0.1605059856
       17.0000000000        1.4372608973        0.1973455208
       18.0000000000        1.6577704099        0.2459802771
       19.0000000000        1.9451575930        0.3112760183
       20.0000000000        2.2984085045        0.3998407422
       21.0000000000        2.7558718005        0.5216277776
       22.0000000000        3.3571692152        0.6900340325
       23.0000000000        4.1568029814        0.9209239717
       24.0000000000        5.2236956145        1.2249445091
       25.0000000000        6.6249550083        1.5806793220
       26.0000000000        8.3647970799        1.8691251222
       27.0000000000       10.2438331274        1.7956130460
       28.0000000000       11.7186105263        1.0290242628
       29.0000000000       12.1283956499       -0.2301901803
       30.0000000000       11.3686184419       -1.1774950432
       31.0000000000       10.0160400536       -1.4249795881
       32.0000000000        8.6455287109       -1.2918382113
       33.0000000000        7.4275125367       -1.1606999241
       34.0000000000        6.2973769602       -1.1029685650
       35.0000000000        5.2357652280       -1.0070709240
       36.0000000000        4.3072442054       -0.8421319629
       37.0000000000        3.5568651769       -0.6602604434
       38.0000000000        2.9784587897       -0.5020894044
       39.0000000000        2.5410784724       -0.3782965313
       40.0000000000        2.2116558534       -0.2850512780
       41.0000000000        1.9631949612       -0.2151841563
       42.0000000000        1.7756631515       -0.1622446708
       43.0000000000        1.6347150335       -0.1213229433
       44.0000000000        1.5302033248       -0.0888765258
       45.0000000000        1.4549878363       -0.0623755949
       46.0000000000        1.4040848302       -0.0399920057
       47.0000000000        1.3740871555       -0.0203684827
       48.0000000000        1.3627799292       -0.0024550073
       49.0000000000        1.3688946975        0.0146077327
       50.0000000000        1.3919639186        0.0315749202
       51.0000000000        1.4322525913        0.0491671998
       52.0000000000        1.4907552699        0.0681333838
       53.0000000000        1.5692560021        0.0893150167
       54.0000000000        1.6704574301        0.1137217226
       55.0000000000        1.7981949842        0.1426280837
       56.0000000000        1.9577645766        0.1777066496
       57.0000000000        2.1564098547        0.2212183323
       58.0000000000        2.4040412467        0.2762920504
       59.0000000000        2.7142983549        0.3473413738
       60.0000000000        3.1061252750        0.4406871677
       61.0000000000        3.6061082891        0.5654754798
       62.0000000000        4.2519142179        0.7349684954
       63.0000000000        5.0971890539        0.9681311506
       64.0000000000        6.2206778410        1.2908042317
       65.0000000000        7.7215129786        1.7332410348
       66.0000000000        9.7341512079        2.3148221993
       67.0000000000       12.3844768544        2.9901990007
       68.0000000000       15.6698607546        3.5184735553
       69.0000000000       19.1774779672        3.3071882257
       70.0000000000       21.8027551797        1.6896983946
       71.0000000000       22.2015442978       -0.9376012861
       72.0000000000       20.1441968425       -2.9515671618
       73.0000000000       16.8025357278       -3.5065186227
       74.0000000000       13.4510923343       -3.1024482138
       75.0000000000       10.6862276427       -2.4184978314
       76.0000000000        8.5954361131       -1.7824729791
       77.0000000000        7.0773814025       -1.2754228179
       78.0000000000        6.0054877095       -0.8851489115
       79.0000000000        5.2793534577       -0.5782205387
       80.0000000000        4.8314593361       -0.3244966949
       81.0000000000        4.6183287061       -0.1077721705
       82.0000000000        4.6000544638        0.0596848758
       83.0000000000        4.7020562271        0.1189979505
       84.0000000000        4.7750124758       -0.0067128508
       85.0000000000        4.6379514029       -0.2773258462
       86.0000000000        4.2389387772       -0.4959292600
       87.0000000000        3.7049946101       -0.5446879859
       88.0000000000        3.1889694177       -0.4756596620
       89.0000000000        2.7646524959       -0.3719885407
       90.0000000000        2.4423139749       -0.2753230346
       91.0000000000        2.2080834328       -0.1960704572
       92.0000000000        2.0449144830       -0.1325200847
       93.0000000000        1.9393517570       -0.0800525159
       94.0000000000        1.8826599025       -0.0340525341
       95.0000000000        1.8704663854        0.0095979229
       96.0000000000        1.9023631094        0.0547779905
       97.0000000000        1.9818947055        0.1056012089
       98.0000000000        2.1170653311        0.1669696946
       99.0000000000        2.3214155911        0.2451422762
      100.0000000000        2.6155810835        0.3480462047
      101.0000000000        3.0286589606        0.4842860186
      102.0000000000        3.5967286138        0.6575884755
      103.0000000000        4.3504697512        0.8487527180
      104.0000000000        5.2740103719        0.9754595357
      105.0000000000        6.2204376299        0.8587839017
      106.0000000000        6.8555536086        0.3475306063
      107.0000000000        6.8457993177       -0.3611158563
      108.0000000000        6.2213576376       -0.8197783203
      109.0000000000        5.3407108730       -0.8866383788
      110.0000000000        4.5211411719       -0.7327280734
      111.0000000000        3.8919375959       -0.5250990239
      112.0000000000        3.4649390040       -0.3336484587
      113.0000000000        3.2149635684       -0.1706357388
      114.0000000000        3.1169320341       -0.0276933043
      115.0000000000        3.1574366348        0.1088596495
      116.0000000000        3.3375159905        0.2540501666
      117.0000000000        3.6738525301        0.4242549413
      118.0000000000        4.2003964298        0.6375732453
      119.0000000000        4.9691730310        0.9110177438
      120.0000000000        6.0436828232        1.2465041943
      121.0000000000        7.4658942912        1.5884359463
      122.0000000000        9.1597786967        1.7409411208
      123.0000000000       10.7630129446        1.3432081947
      124.0000000000       11.5951773236        0.2227159657
      125.0000000000       11.1499457608       -1.0632031231
      126.0000000000        9.6805289787       -1.7452631446
      127.0000000000        7.8875259794       -1.7571448666
      128.0000000000        6.2673364323       -1.4601843009
      129.0000000000        4.9791002310       -1.1213571640
      130.0000000000        4.0050957320       -0.8385108220
      131.0000000000        3.2785890480       -0.6254225959
      132.0000000000        2.7349523160       -0.4701762454
      133.0000000000        2.3240646050       -0.3575544677
      134.0000000000        2.0098332970       -0.2750799412
      135.0000000000        1.7669133246       -0.2136700783
      136.0000000000        1.5776155378       -0.1669561084
      137.0000000000        1.4296008426       -0.1304848899
      138.0000000000        1.3142980941       -0.1010834822
      139.0000000000        1.2258669721       -0.0763987530
      140.0000000000        1.1605525081       -0.0545661176
      141.0000000000        1.1163252840       -0.0339635998
      142.0000000000        1.0927344360       -0.0130324400
      143.0000000000        1.0908934145        0.0097929434
      144.0000000000        1.1134060805        0.0358365137
      145.0000000000        1.1636525061        0.0649920418
      146.0000000000        1.2429090658        0.0923385279
      147.0000000000        1.3427043140        0.1023660149
      148.0000000000        1.4334407788        0.0704042847
      149.0000000000        1.4675808662       -0.0071950655
      150.0000000000        1.4192401585       -0.0842683721
      151.0000000000        1.3150272414       -0.1155462126
      152.0000000000        1.2020474346       -0.1056955575
      153.0000000000        1.1089574577       -0.0794324376
      154.0000000000        1.0434345144       -0.0520545344
      155.0000000000        1.0035506084       -0.0284290450
      156.0000000000        0.9852430054       -0.0087683184
      157.0000000000        0.9850599979        0.0080318041
      158.0000000000        1.0007673484        0.0232083375
      159.0000000000        1.0313006775        0.0378521171
      160.0000000000        1.0766126642        0.0529173208
      161.0000000000        1.1375755030        0.0693045314
      162.0000000000        1.2159757401        0.0879587380
      163.0000000000        1.3146109070        0.1099758025
      164.0000000000        1.4375009907        0.1367282476
      165.0000000000        1.5902430366        0.1700295672
      166.0000000000        1.7805604070        0.2123646912
      167.0000000000        2.0191314574        0.2672261814
      168.0000000000        2.3208296704        0.3396116187
      169.0000000000        2.7065705221        0.4367516939
      170.0000000000        3.2060271709        0.5691236343
      171.0000000000        3.8614794983        0.7516633383
      172.0000000000        4.7327441265        1.0045060515
      173.0000000000        5.9016667595        1.3506268090
      174.0000000000        7.4696585405        1.8021053677
      175.0000000000        9.5278541808        2.3143018928
      176.0000000000       12.0526482219        2.6793381704
      177.0000000000       14.6792232635        2.4187172936
      178.0000000000       16.5142819907        1.0645074263
      179.0000000000       16.5755098479       -0.9499400432
      180.0000000000       14.8230690996       -2.3729488534
      181.0000000000       12.2092177169       -2.6935831959
      182.0000000000        9.6561036777       -2.3513382423
      183.0000000000        7.5594352177       -1.8399061919
      184.0000000000        5.9564860992       -1.3823560625
      185.0000000000        4.7591281338       -1.0298176902
      186.0000000000        3.8651947349       -0.7719524985
      187.0000000000        3.1913334485       -0.5858784798
      188.0000000000        2.6763804745       -0.4511597392
      189.0000000000        2.2702064899       -0.3524671887
      190.0000000000        1.9561075352       -0.2792657021
      191.0000000000        1.7056922276       -0.2240881530
      192.0000000000        1.5036346813       -0.1818511522
      193.0000000000        1.3388638506       -0.1490267340
      194.0000000000        1.2019692504       -0.1231212716
      195.0000000000        1.0895784090       -0.1024038225
      196.0000000000        0.9958663685       -0.0855831899
      197.0000000000        0.9174276246       -0.0717235468
      198.0000000000        0.8516670602       -0.0601260338
      199.0000000000        0.7966000910       -0.0502588010
      200.0000000000        0.7507115345       -0.0417080719
      201.0000000000        0.7128559858       -0.0341431090
      202.0000000000        0.6821883342       -0.0272903161
      203.0000000000        0.6581170229       -0.0209131927
      204.0000000000        0.6402754505       -0.0147957473
      205.0000000000        0.6285090338       -0.0087274689
      206.0000000000        0.6228772398       -0.0024881284
      207.0000000000        0.6236716512        0.0041694184
      208.0000000000        0.6314531395        0.0115406797
      209.0000000000        0.6471138484        0.0199983074
      210.0000000000        0.6719734098        0.0300326856
      211.0000000000        0.7079243250        0.0423110271
      212.0000000000        0.7576496907        0.0577649673
      213.0000000000        0.8249485360        0.0777209593
      214.0000000000        0.9152204279        0.1040915416
      215.0000000000        1.0361783610        0.1396416045
      216.0000000000        1.1988592359        0.1883063466
      217.0000000000        1.4189169736        0.2553831902
      218.0000000000        1.7177950616        0.3469021002
      219.0000000000        2.1220535367        0.4659877630
      220.0000000000        2.6554557868        0.6007527962
      221.0000000000        3.3113723693        0.6962457150
      222.0000000000        3.9931899350        0.6265284417
      223.0000000000        4.4657381578        0.2696846406
      224.0000000000        4.4722139092       -0.2583387978
      225.0000000000        4.0045033838       -0.6292034418
      226.0000000000        3.3132490445       -0.7112222298
      227.0000000000        2.6394102000       -0.6205448359
      228.0000000000        2.0858002273       -0.4861950758
      229.0000000000        1.6617514730       -0.3662096111
      230.0000000000        1.3563420580       -0.2736426113
      231.0000000000        1.1047176818       -0.2058640468
      232.0000000000        0.9245790649       -0.1570606095
      233.0000000000        0.7861284695       -0.1217092335
      234.0000000000        0.6780192269       -0.0958218658
      235.0000000000        0.5922730242       -0.0765983819
      236.0000000000        0.5232509998       -0.0621090063
      237.0000000000        0.4669243274       -0.0510250067
      238.0000000000        0.4203760700       -0.0424247573
      239.0000000000        0.3814644237       -0.0356617989
      240.0000000000        0.3485945550       -0.0302768022
      241.0000000000        0.3205627336       -0.0259389929
      242.0000000000        0.2964486595       -0.0224069784
      243.0000000000        0.2755401543       -0.0195023061
      244.0000000000        0.2572798089       -0.0170914153
      245.0000000000        0.2395727251       -0.0150525451
      246.0000000000        0.2253950482       -0.0133498913
      247.0000000000        0.2127879873       -0.0119025354
      248.0000000000        0.2015205857       -0.0106636814
      249.0000000000        0.1914035048       -0.0095964360
      250.0000000000        0.1822803538       -0.0086714624
      251.0000000000        0.1740210452       -0.0078652425
      252.0000000000        0.1665166556       -0.0071587793
      253.0000000000        0.1596754174       -0.0065366166
      254.0000000000        0.1534195668       -0.0059860945
      255.0000000000        0.1476828467       -0.0054967763
      256.0000000000        0.1424085139       -0.0050600063
      257.0000000000        0.1375477375       -0.0046685646
      258.0000000000        0.1330583043       -0.0043163958
      259.0000000000        0.1289035650       -0.0039983954
      260.0000000000        0.1250515726       -0.0037102389
      261.0000000000        0.1214743721       -0.0034482454
      262.0000000000        0.1181474146       -0.0032092681
      263.0000000000        0.1150490688       -0.0029906048
      264.0000000000        0.1121602137       -0.0027899259
      265.0000000000        0.1094638973       -0.0026052150
      266.0000000000        0.1069450476       -0.0024347201
      267.0000000000        0.1008988552       -0.0022309617
      268.0000000000        0.0996133556       -0.0020743959
      269.0000000000        0.0976075911       -0.0019387348
      270.0000000000        0.0957328483       -0.0018121908
      271.0000000000        0.0939804762       -0.0016938500
      272.0000000000        0.0923426851       -0.0015829018
      273.0000000000        0.0908124496       -0.0014786253
      274.0000000000        0.0893834259       -0.0013803771
      275.0000000000        0.0880498787       -0.0012875814
      276.0000000000        0.0868066186       -0.0011997212
      277.0000000000        0.0856489468       -0.0011163310
      278.0000000000        0.0845726072       -0.0010369901
      279.0000000000        0.0835737442       -0.0009613175
      280.0000000000        0.0826488654       -0.0008889665
      281.0000000000        0.0817948096       -0.0008196213
      282.0000000000        0.0810087176       -0.0007529925
      283.0000000000        0.0802880078       -0.0006888147
      284.0000000000        0.0796303530       -0.0006268431
      285.0000000000        0.0722086780       -0.0004820230
      286.0000000000        0.0717551211       -0.0004253625
      287.0000000000        0.0713574414       -0.0003702374
      288.0000000000        0.0710141955       -0.0003164653
      289.0000000000        0.0707241170       -0.0002638748
      290.0000000000        0.0704861061       -0.0002123039
      291.0000000000        0.0702992207       -0.0001615987
