# IR Spectrum
# X-Axis:  Frequency (cm-1)
# Y-Axis:  &epsilon; (M-1 cm-1)

# Peak information
#                  X                   Y
#      45.8393000000      148.8214162616
#      67.6108000000      311.4419195358
#     115.5174000000      272.3329216406
#     178.1201000000      753.6332972257
#     262.6210000000      177.0278859226
#     316.4946000000     1121.6801261686
#     421.6369000000      127.4801800551
#     652.3153000000     1246.7904627542
#     817.3288000000      468.8897203540
#     830.1028000000       18.2730220612
#     901.6748000000      127.6368530508
#    1057.3596000000      369.2646424389
#    1106.5558000000       68.5582938462
#    1195.9291000000       17.5710682527
#    1292.9307000000      391.3493884965
#    1313.5254000000        8.3637534135
#    1388.3827000000      176.5123458480
#    1431.4970000000        6.8651778832
#    1462.8414000000      230.8120700957
#    1479.7555000000        1.3191450518
#    1516.2566000000       14.9235043908
#    1529.5766000000        7.8709385724
#    1555.7890000000        8.7806852354
#    2918.8176000000     1084.5603741330
#    3027.8912000000       58.2208121263
#    3060.4175000000       14.4534660525
#    3065.2888000000       48.9604563537
#    3130.8381000000       37.4962858477
#    3139.3287000000       33.2671248220
#    3587.3103000000      175.5558903788

# Spectra
#                  X                   Y               DY/DX
        0.0000000000        0.1409232787        0.0043737646
        1.0000000000        0.1454111814        0.0046048692
        2.0000000000        0.1501389563        0.0048537984
        3.0000000000        0.1551253329        0.0051223996
        4.0000000000        0.1603910066        0.0054127634
        5.0000000000        0.1659589014        0.0057272633
        6.0000000000        0.1718544752        0.0060686022
        7.0000000000        0.1781060766        0.0064398688
        8.0000000000        0.1847453631        0.0068446043
        9.0000000000        0.1918077930        0.0072868843
       10.0000000000        0.1993332077        0.0077714173
       11.0000000000        0.2073665226        0.0083036652
       12.0000000000        0.2159585519        0.0088899906
       13.0000000000        0.2251669972        0.0095378395
       14.0000000000        0.2350576395        0.0102559669
       15.0000000000        0.2457057843        0.0110547189
       16.0000000000        0.2571980229        0.0119463872
       17.0000000000        0.2696343932        0.0129456574
       18.0000000000        0.2831310477        0.0140701801
       19.0000000000        0.3712640893        0.0162638044
       20.0000000000        0.3882429066        0.0177251256
       21.0000000000        0.4067825682        0.0193913787
       22.0000000000        0.4271070065        0.0213019791
       23.0000000000        0.4494842040        0.0235060280
       24.0000000000        0.4742372626        0.0260652229
       25.0000000000        0.5017588710        0.0290578049
       26.0000000000        0.5325304103        0.0325839708
       27.0000000000        0.5671474551        0.0367733799
       28.0000000000        0.6063542014        0.0417956894
       29.0000000000        0.6510905049        0.0478755239
       30.0000000000        0.7025569540        0.0553140109
       31.0000000000        0.7623060607        0.0645201495
       32.0000000000        0.8323717392        0.0760570454
       33.0000000000        0.9154555335        0.0907107599
       34.0000000000        1.0151977098        0.1095935725
       35.0000000000        1.1365757790        0.1342989928
       36.0000000000        1.2864933991        0.1671317421
       37.0000000000        1.4746468597        0.2114358948
       38.0000000000        1.7147691471        0.2720147583
       39.0000000000        2.0262914050        0.3554980094
       40.0000000000        2.4361207826        0.4700245690
       41.0000000000        2.9789894713        0.6221330549
       42.0000000000        3.6911297830        0.8051174850
       43.0000000000        4.5837122253        0.9683800497
       44.0000000000        5.5755814240        0.9716447345
       45.0000000000        6.4064247842        0.6203439595
       46.0000000000        6.7009122193       -0.0600730247
       47.0000000000        6.3136094707       -0.6631670763
       48.0000000000        5.5085786142       -0.8806778933
       49.0000000000        4.6533179560       -0.7974900143
       50.0000000000        3.9479048414       -0.6075994989
       51.0000000000        3.4371182508       -0.4181453756
       52.0000000000        3.1009024847       -0.2598789563
       53.0000000000        2.9072222590       -0.1318018139
       54.0000000000        2.8304053957       -0.0243994976
       55.0000000000        2.8549806959        0.0726464085
       56.0000000000        2.9754651601        0.1689873231
       57.0000000000        3.1958875263        0.2741595100
       58.0000000000        3.5302362962        0.3987723155
       59.0000000000        4.0042526553        0.5559866032
       60.0000000000        4.6587913673        0.7631318608
       61.0000000000        5.5546484450        1.0428210446
       62.0000000000        6.7773280983        1.4209752849
       63.0000000000        8.4352324893        1.9134322661
       64.0000000000       10.6305812154        2.4797581541
       65.0000000000       13.3537365882        2.9120428353
       66.0000000000       16.2444293936        2.7077700760
       67.0000000000       18.3642079944        1.3216243870
       68.0000000000       18.6018752090       -0.8763844824
       69.0000000000       16.8053276739       -2.5253971014
       70.0000000000       13.9702811715       -2.9601179316
       71.0000000000       11.1442465616       -2.6171114628
       72.0000000000        8.8046049644       -2.0567589657
       73.0000000000        7.0122918076       -1.5451958248
       74.0000000000        5.6753695428       -1.1480024018
       75.0000000000        4.6809383306       -0.8564610174
       76.0000000000        3.9355769254       -0.6456495602
       77.0000000000        3.3704118314       -0.4927217603
       78.0000000000        2.9366238025       -0.3804936245
       79.0000000000        2.5999355531       -0.2968565133
       80.0000000000        2.3361952183       -0.2334512674
       81.0000000000        2.1282293375       -0.1845146056
       82.0000000000        1.9636911527       -0.1460412991
       83.0000000000        1.8336074678       -0.1152120942
       84.0000000000        1.7313968578       -0.0900111619
       85.0000000000        1.6522023478       -0.0689709732
       86.0000000000        1.5924343588       -0.0510009857
       87.0000000000        1.5494556408       -0.0352711046
       88.0000000000        1.5213635869       -0.0211309303
       89.0000000000        1.5068407829       -0.0080523804
       90.0000000000        1.5050548011        0.0044125345
       91.0000000000        1.5155950461        0.0166643621
       92.0000000000        1.5384391701        0.0290832607
       93.0000000000        1.5739450313        0.0420534957
       94.0000000000        1.6228669698        0.0559879962
       95.0000000000        1.6863977387        0.0713555614
       96.0000000000        1.7662401727        0.0887136733
       97.0000000000        1.8647160030        0.1087507105
       98.0000000000        1.9849236935        0.1323428144
       99.0000000000        2.1309635206        0.1606330475
      100.0000000000        2.3082575099        0.1951442707
      101.0000000000        2.5240060349        0.2379431415
      102.0000000000        2.7878446051        0.2918819604
      103.0000000000        3.1380735913        0.3612758689
      104.0000000000        3.5422730932        0.4511843137
      105.0000000000        4.0500720563        0.5701033987
      106.0000000000        4.6960505716        0.7299113395
      107.0000000000        5.5291870878        0.9478425906
      108.0000000000        6.6192018912        1.2484719651
      109.0000000000        8.0646583111        1.6648963250
      110.0000000000       10.0002712901        2.2347285544
      111.0000000000       12.5925462111        2.9771374087
      112.0000000000       15.9897933057        3.8166295268
      113.0000000000       20.1484323597        4.4070206862
      114.0000000000       24.4593879671        3.9584693837
      115.0000000000       27.4479849998        1.7141600605
      116.0000000000       27.5150878127       -1.5870235622
      117.0000000000       24.6250015615       -3.8929675210
      118.0000000000       20.3499729337       -4.3952093334
      119.0000000000       16.1906118588       -3.8250699450
      120.0000000000       12.7837538278       -2.9860179148
      121.0000000000       10.1852973658       -2.2378551749
      122.0000000000        8.2496947299       -1.6618897294
      123.0000000000        6.8098347926       -1.2405087622
      124.0000000000        5.7297290323       -0.9361763365
      125.0000000000        4.9096909415       -0.7155177285
      126.0000000000        4.2791725297       -0.5536709818
      127.0000000000        3.7886228989       -0.4331815464
      128.0000000000        3.4030751568       -0.3420177556
      129.0000000000        3.0976025940       -0.2718912942
      130.0000000000        2.8542167094       -0.2170484191
      131.0000000000        2.6597710600       -0.1734477070
      132.0000000000        2.5045418986       -0.1382113312
      133.0000000000        2.3812594905       -0.1092598357
      134.0000000000        2.2844400244       -0.0850677058
      135.0000000000        2.2099195630       -0.0644981820
      136.0000000000        2.1545252858       -0.0466902732
      137.0000000000        2.1158412246       -0.0309804236
      138.0000000000        2.0920399588       -0.0168474025
      139.0000000000        2.0817610610       -0.0038729033
      140.0000000000        2.0840232491        0.0082871429
      141.0000000000        2.0981613212        0.0199239060
      142.0000000000        2.1237817510        0.0312919570
      143.0000000000        2.1607327584        0.0426221461
      144.0000000000        2.2090860480        0.0541322235
      145.0000000000        2.2691284128        0.0660360797
      146.0000000000        2.3413621822        0.0785522971
      147.0000000000        2.4265141288        0.0919126118
      148.0000000000        2.5255530244        0.1063708443
      149.0000000000        2.6397166030        0.1222128825
      150.0000000000        2.7705493021        0.1397683774
      151.0000000000        2.9199528841        0.1594249566
      152.0000000000        3.0902529475        0.1816459867
      153.0000000000        3.2842855280        0.2069932546
      154.0000000000        3.5055095916        0.2361564337
      155.0000000000        3.7581534279        0.2699919255
      156.0000000000        4.0474060378        0.3095747265
      157.0000000000        4.5729803930        0.3586910635
      158.0000000000        4.9586474205        0.4142902914
      159.0000000000        5.4052619708        0.4810156460
      160.0000000000        5.9253664766        0.5618360811
      161.0000000000        6.5349297390        0.6606875233
      162.0000000000        7.2544916300        0.7828514836
      163.0000000000        8.1107664799        0.9355054296
      164.0000000000        9.1389175035        1.1285324089
      165.0000000000       10.3858241346        1.3757248319
      166.0000000000       11.9148324874        1.6965888537
      167.0000000000       13.8127337005        2.1190569250
      168.0000000000       16.2000822850        2.6835355572
      169.0000000000       19.2464346824        3.4487719814
      170.0000000000       23.1924654739        4.4996911717
      171.0000000000       28.3803658191        5.9555167585
      172.0000000000       35.2895068952        7.9696505628
      173.0000000000       44.5569376549       10.6911690770
      174.0000000000       56.9075449225       14.1004554304
      175.0000000000       72.7825158456       17.5318272565
      176.0000000000       91.2692501247       18.7837725810
      177.0000000000      108.3188401471       14.0016708028
      178.0000000000      116.6713604875        1.7444069420
      179.0000000000      111.4106191194      -11.6348446484
      180.0000000000       95.7416255886      -18.3309141620
      181.0000000000       77.0820779046      -18.1555772603
      182.0000000000       60.4130610218      -14.9691425459
      183.0000000000       47.2333499166      -11.4528388603
      184.0000000000       37.2939854762       -8.5512529816
      185.0000000000       29.8855684017       -6.3787601752
      186.0000000000       24.3371432478       -4.8038919322
      187.0000000000       20.1318147614       -3.6681142198
      188.0000000000       16.8976690174       -2.8432971352
      189.0000000000       14.3727150408       -2.2369368462
      190.0000000000       12.3726146522       -1.7847787014
      191.0000000000       10.7666389457       -1.4426255314
      192.0000000000        9.4609616228       -1.1799811601
      193.0000000000        8.3873212258       -0.9756080561
      194.0000000000        7.4953580470       -0.8145373991
      195.0000000000        6.7474078862       -0.6860791130
      196.0000000000        6.1149306396       -0.5824960402
      197.0000000000        5.5760313476       -0.4981142823
      198.0000000000        5.1137176800       -0.4287201051
      199.0000000000        4.7146593336       -0.3711463220
      200.0000000000        4.3682936209       -0.3229851447
      201.0000000000        4.0661727900       -0.2823863754
      202.0000000000        3.8014822013       -0.2479138612
      203.0000000000        3.5686807103       -0.2184421939
      204.0000000000        3.3632294615       -0.1930815367
      205.0000000000        3.1813853528       -0.1711223316
      206.0000000000        3.0163583964       -0.1519482404
      207.0000000000        2.8729698118       -0.1351900635
      208.0000000000        2.7453149785       -0.1204239833
      209.0000000000        2.6315616634       -0.1073402183
      210.0000000000        2.5301596859       -0.0956824380
      211.0000000000        2.4397930232       -0.0852370907
      212.0000000000        2.3593413774       -0.0758250470
      213.0000000000        2.2878491777       -0.0672950065
      214.0000000000        2.2245004721       -0.0595182525
      215.0000000000        2.1685985219       -0.0523844476
      216.0000000000        2.1195491821       -0.0457982322
      217.0000000000        2.0768473564       -0.0396764492
      218.0000000000        2.0400659762       -0.0339458541
      219.0000000000        2.0088470710       -0.0285412024
      220.0000000000        1.9828946005       -0.0234036288
      221.0000000000        1.9619687901       -0.0184792495
      222.0000000000        1.9458817776       -0.0137179292
      223.0000000000        1.9344944307       -0.0090721650
      224.0000000000        1.9277142392       -0.0044960457
      225.0000000000        1.9254942283        0.0000557545
      226.0000000000        1.9278328757        0.0046289857
      227.0000000000        1.9347750563        0.0092708732
      228.0000000000        1.9350754616        0.0141725565
      229.0000000000        1.9516962899        0.0191025487
      230.0000000000        1.9733575995        0.0242638970
      231.0000000000        2.0003231531        0.0297227566
      232.0000000000        2.0329272636        0.0355544574
      233.0000000000        2.0715852083        0.0418460743
      234.0000000000        2.1168065168        0.0486996341
      235.0000000000        2.1692118682        0.0562361693
      236.0000000000        2.2295545810        0.0646009033
      237.0000000000        2.2987480103        0.0739699550
      238.0000000000        2.3779006242        0.0845590984
      239.0000000000        2.4683611679        0.0966353245
      240.0000000000        2.5717772148        0.1105322599
      241.0000000000        2.6901716650        0.1266709425
      242.0000000000        2.8260435652        0.1455881180
      243.0000000000        2.9825022471        0.1679752112
      244.0000000000        3.1634476282        0.1947326167
      245.0000000000        3.3738152292        0.2270462386
      246.0000000000        3.6199130129        0.2664967196
      247.0000000000        3.9098901248        0.3152172546
      248.0000000000        4.2543974415        0.3761243888
      249.0000000000        4.6675303691        0.4532594195
      250.0000000000        5.1681913822        0.5522982846
      251.0000000000        5.7820817084        0.6813176276
      252.0000000000        6.5446383714        0.8519442238
      253.0000000000        7.5053799783        1.0810520028
      254.0000000000        8.7342872516        1.3931475284
      255.0000000000       10.3308774284        1.8232895407
      256.0000000000       12.4359824925        2.4191299746
      257.0000000000       15.2430922524        3.2363817604
      258.0000000000       18.9951844245        4.3094824312
      259.0000000000       23.9219157353        5.5505885921
      260.0000000000       30.0090528681        6.5055751820
      261.0000000000       36.4743381434        6.0710206139
      262.0000000000       41.2888350500        3.0349128783
      263.0000000000       41.9341445505       -1.8166200466
      264.0000000000       38.0737162076       -5.4843219730
      265.0000000000       31.8917367076       -6.4698352772
      266.0000000000       25.7115272238       -5.7230028823
      267.0000000000       20.6004226890       -4.4862108136
      268.0000000000       16.6996066806       -3.3533858451
      269.0000000000       13.8081569348       -2.4722054681
      270.0000000000       11.6771559405       -1.8242528928
      271.0000000000       10.1003080147       -1.3545854140
      272.0000000000        8.9255572024       -1.0126462922
      273.0000000000        8.0452578414       -0.7603579111
      274.0000000000        7.3840003339       -0.5708670118
      275.0000000000        6.8888389743       -0.4256191896
      276.0000000000        6.5054061466       -0.3115942867
      277.0000000000        6.2410418292       -0.2202963046
      278.0000000000        6.0594294470       -0.1452085159
      279.0000000000        5.9467450410       -0.0817994111
      280.0000000000        5.8930559040       -0.0267414360
      281.0000000000        5.8913194491        0.0224699039
      282.0000000000        5.9366980420        0.0677756676
      283.0000000000        6.0260910609        0.1107339153
      284.0000000000        6.1578197059        0.1526484424
      285.0000000000        6.3314225368        0.1946639505
      286.0000000000        6.5475346772        0.2378398881
      287.0000000000        6.8078338701        0.2832115161
      288.0000000000        7.1150439104        0.3318445243
      289.0000000000        7.4729916280        0.3848883038
      290.0000000000        7.8867183912        0.4436324747
      291.0000000000        8.3626517069        0.5095713740
      292.0000000000        8.9088474909        0.5844818984
      293.0000000000        9.5353195957        0.6705214553
      294.0000000000       10.2544809610        0.7703549966
      295.0000000000       11.0817313254        0.8873235420
      296.0000000000       12.0362412645        1.0256718021
      297.0000000000       13.1420035978        1.1908603823
      298.0000000000       14.4292542522        1.3900000251
      299.0000000000       15.9364106423        1.6324636848
      300.0000000000       17.7127445551        1.9307605575
      301.0000000000       19.8221110371        2.3018002134
      302.0000000000       22.3482147309        2.7687436374
      303.0000000000       25.4021413818        3.3637446566
